Wed Apr 16 15:09:47 IST 2025
TimeStamp,ECG,PPG
15:09:47,-609.0,214.0,203.0
15:09:47,-609.0,214.0,203.0
15:09:47,-609.0,214.0,203.0
15:09:47,-609.0,214.0,203.0
15:09:47,-575.0,213.0,204.0
15:09:47,-575.0,213.0,204.0
15:09:47,-575.0,213.0,204.0
15:09:47,-575.0,213.0,204.0
15:09:47,-608.0,215.0,204.0
15:09:47,-608.0,215.0,204.0
15:09:47,-608.0,215.0,204.0
15:09:47,-608.0,215.0,204.0
15:09:47,-661.0,213.0,204.0
15:09:47,-661.0,213.0,204.0
15:09:47,-661.0,213.0,204.0
15:09:47,-661.0,213.0,204.0
15:09:47,-728.0,214.0,204.0
15:09:47,-728.0,214.0,204.0
15:09:47,-728.0,214.0,204.0
15:09:47,-728.0,214.0,204.0
15:09:47,-760.0,214.0,204.0
15:09:47,-760.0,214.0,204.0
15:09:47,-760.0,214.0,204.0
15:09:47,-760.0,214.0,204.0
15:09:47,-760.0,213.0,202.0
15:09:47,-760.0,213.0,202.0
15:09:47,-760.0,213.0,202.0
15:09:47,-760.0,213.0,202.0
15:09:47,-751.0,212.0,203.0
15:09:47,-751.0,212.0,203.0
15:09:47,-751.0,212.0,203.0
15:09:47,-751.0,212.0,203.0
15:09:47,-723.0,213.0,203.0
15:09:47,-723.0,213.0,203.0
15:09:47,-723.0,213.0,203.0
15:09:47,-723.0,213.0,203.0
15:09:47,-748.0,212.0,203.0
15:09:47,-748.0,212.0,203.0
15:09:47,-748.0,212.0,203.0
15:09:47,-748.0,212.0,203.0
15:09:47,-742.0,213.0,202.0
15:09:47,-742.0,213.0,202.0
15:09:47,-742.0,213.0,202.0
15:09:47,-742.0,213.0,202.0
15:09:47,-740.0,213.0,202.0
15:09:47,-740.0,213.0,202.0
15:09:47,-740.0,213.0,202.0
15:09:47,-740.0,213.0,202.0
15:09:47,-725.0,214.0,202.0
15:09:47,-725.0,214.0,202.0
15:09:47,-725.0,214.0,202.0
15:09:47,-725.0,214.0,202.0
15:09:47,-726.0,214.0,202.0
15:09:47,-726.0,214.0,202.0
15:09:47,-726.0,214.0,202.0
15:09:47,-726.0,214.0,202.0
15:09:47,-707.0,215.0,204.0
15:09:47,-707.0,215.0,204.0
15:09:47,-707.0,215.0,204.0
15:09:47,-707.0,215.0,204.0
15:09:47,-756.0,214.0,204.0
15:09:47,-756.0,214.0,204.0
15:09:47,-756.0,214.0,204.0
15:09:47,-756.0,214.0,204.0
15:09:47,-737.0,216.0,204.0
15:09:47,-737.0,216.0,204.0
15:09:47,-737.0,216.0,204.0
15:09:47,-737.0,216.0,204.0
15:09:47,-716.0,213.0,203.0
15:09:47,-716.0,213.0,203.0
15:09:47,-716.0,213.0,203.0
15:09:47,-716.0,213.0,203.0
15:09:47,-692.0,214.0,204.0
15:09:47,-692.0,214.0,204.0
15:09:47,-692.0,214.0,204.0
15:09:47,-692.0,214.0,204.0
15:09:47,-727.0,215.0,203.0
15:09:47,-727.0,215.0,203.0
15:09:47,-727.0,215.0,203.0
15:09:47,-727.0,215.0,203.0
15:09:47,-732.0,215.0,203.0
15:09:47,-732.0,215.0,203.0
15:09:47,-732.0,215.0,203.0
15:09:47,-732.0,215.0,203.0
15:09:47,-699.0,213.0,203.0
15:09:47,-699.0,213.0,203.0
15:09:47,-699.0,213.0,203.0
15:09:47,-699.0,213.0,203.0
15:09:47,-678.0,213.0,203.0
15:09:47,-678.0,213.0,203.0
15:09:47,-678.0,213.0,203.0
15:09:47,-678.0,213.0,203.0
15:09:47,-643.0,215.0,204.0
15:09:47,-643.0,215.0,204.0
15:09:47,-643.0,215.0,204.0
15:09:47,-643.0,215.0,204.0
15:09:47,-594.0,214.0,203.0
15:09:47,-594.0,214.0,203.0
15:09:47,-594.0,214.0,203.0
15:09:47,-594.0,214.0,203.0
15:09:47,-620.0,213.0,202.0
15:09:47,-620.0,213.0,202.0
15:09:47,-620.0,213.0,202.0
15:09:47,-620.0,213.0,202.0
15:09:47,-728.0,213.0,202.0
15:09:47,-728.0,213.0,202.0
15:09:47,-728.0,213.0,202.0
15:09:47,-728.0,213.0,202.0
15:09:47,-727.0,212.0,202.0
15:09:47,-727.0,212.0,202.0
15:09:47,-727.0,212.0,202.0
15:09:47,-727.0,212.0,202.0
15:09:47,-746.0,214.0,201.0
15:09:47,-746.0,214.0,201.0
15:09:47,-746.0,214.0,201.0
15:09:47,-746.0,214.0,201.0
15:09:47,-786.0,213.0,202.0
15:09:47,-786.0,213.0,202.0
15:09:47,-786.0,213.0,202.0
15:09:47,-786.0,213.0,202.0
15:09:47,-759.0,214.0,202.0
15:09:47,-759.0,214.0,202.0
15:09:47,-759.0,214.0,202.0
15:09:47,-759.0,214.0,202.0
15:09:47,-581.0,214.0,202.0
15:09:47,-581.0,214.0,202.0
15:09:47,-581.0,214.0,202.0
15:09:47,-581.0,214.0,202.0
15:09:47,358.0,214.0,202.0
15:09:47,358.0,214.0,202.0
15:09:47,358.0,214.0,202.0
15:09:47,358.0,214.0,202.0
15:09:47,-944.0,212.0,203.0
15:09:47,-944.0,212.0,203.0
15:09:47,-944.0,212.0,203.0
15:09:47,-944.0,212.0,203.0
15:09:47,-827.0,214.0,203.0
15:09:47,-827.0,214.0,203.0
15:09:47,-827.0,214.0,203.0
15:09:47,-827.0,214.0,203.0
15:09:47,-812.0,213.0,202.0
15:09:47,-812.0,213.0,202.0
15:09:47,-812.0,213.0,202.0
15:09:47,-812.0,213.0,202.0
15:09:47,-787.0,214.0,204.0
15:09:47,-787.0,214.0,204.0
15:09:47,-787.0,214.0,204.0
15:09:47,-787.0,214.0,204.0
15:09:47,-794.0,214.0,203.0
15:09:47,-794.0,214.0,203.0
15:09:47,-794.0,214.0,203.0
15:09:47,-794.0,214.0,203.0
15:09:47,-761.0,214.0,203.0
15:09:47,-761.0,214.0,203.0
15:09:47,-761.0,214.0,203.0
15:09:47,-761.0,214.0,203.0
15:09:47,-755.0,214.0,204.0
15:09:47,-755.0,214.0,204.0
15:09:47,-755.0,214.0,204.0
15:09:47,-755.0,214.0,204.0
15:09:47,-705.0,213.0,203.0
15:09:48,-705.0,213.0,203.0
15:09:48,-705.0,213.0,203.0
15:09:48,-705.0,213.0,203.0
15:09:48,-724.0,213.0,203.0
15:09:48,-724.0,213.0,203.0
15:09:48,-724.0,213.0,203.0
15:09:48,-724.0,213.0,203.0
15:09:48,-704.0,214.0,204.0
15:09:48,-704.0,214.0,204.0
15:09:48,-704.0,214.0,204.0
15:09:48,-704.0,214.0,204.0
15:09:48,-651.0,213.0,203.0
15:09:48,-651.0,213.0,203.0
15:09:48,-651.0,213.0,203.0
15:09:48,-651.0,213.0,203.0
15:09:48,-633.0,213.0,202.0
15:09:48,-633.0,213.0,202.0
15:09:48,-633.0,213.0,202.0
15:09:48,-633.0,213.0,202.0
15:09:48,-625.0,215.0,202.0
15:09:48,-625.0,215.0,202.0
15:09:48,-625.0,215.0,202.0
15:09:48,-625.0,215.0,202.0
15:09:48,-646.0,213.0,202.0
15:09:48,-646.0,213.0,202.0
15:09:48,-646.0,213.0,202.0
15:09:48,-646.0,213.0,202.0
15:09:48,-683.0,212.0,202.0
15:09:48,-683.0,212.0,202.0
15:09:48,-683.0,212.0,202.0
15:09:48,-683.0,212.0,202.0
15:09:48,-763.0,212.0,202.0
15:09:48,-763.0,212.0,202.0
15:09:48,-763.0,212.0,202.0
15:09:48,-763.0,212.0,202.0
15:09:48,-808.0,215.0,203.0
15:09:48,-808.0,215.0,203.0
15:09:48,-808.0,215.0,203.0
15:09:48,-808.0,215.0,203.0
15:09:48,-832.0,214.0,205.0
15:09:48,-832.0,214.0,205.0
15:09:48,-832.0,214.0,205.0
15:09:48,-832.0,214.0,205.0
15:09:48,-801.0,214.0,204.0
15:09:48,-801.0,214.0,204.0
15:09:48,-801.0,214.0,204.0
15:09:48,-801.0,214.0,204.0
15:09:48,-816.0,214.0,204.0
15:09:48,-816.0,214.0,204.0
15:09:48,-816.0,214.0,204.0
15:09:48,-816.0,214.0,204.0
15:09:48,-812.0,215.0,204.0
15:09:48,-812.0,215.0,204.0
15:09:48,-812.0,215.0,204.0
15:09:48,-812.0,215.0,204.0
15:09:48,-795.0,213.0,203.0
15:09:48,-795.0,213.0,203.0
15:09:48,-795.0,213.0,203.0
15:09:48,-795.0,213.0,203.0
15:09:48,-781.0,215.0,203.0
15:09:48,-781.0,215.0,203.0
15:09:48,-781.0,215.0,203.0
15:09:48,-781.0,215.0,203.0
15:09:48,-785.0,214.0,204.0
15:09:48,-785.0,214.0,204.0
15:09:48,-785.0,214.0,204.0
15:09:48,-785.0,214.0,204.0
15:09:48,-803.0,214.0,203.0
15:09:48,-803.0,214.0,203.0
15:09:48,-803.0,214.0,203.0
15:09:48,-803.0,214.0,203.0
15:09:48,-779.0,213.0,203.0
15:09:48,-779.0,213.0,203.0
15:09:48,-779.0,213.0,203.0
15:09:48,-779.0,213.0,203.0
15:09:48,-795.0,215.0,203.0
15:09:48,-795.0,215.0,203.0
15:09:48,-795.0,215.0,203.0
15:09:48,-795.0,215.0,203.0
15:09:48,-816.0,213.0,202.0
15:09:48,-816.0,213.0,202.0
15:09:48,-816.0,213.0,202.0
15:09:48,-816.0,213.0,202.0
15:09:48,-774.0,213.0,203.0
15:09:48,-774.0,213.0,203.0
15:09:48,-774.0,213.0,203.0
15:09:48,-774.0,213.0,203.0
15:09:48,-803.0,214.0,203.0
15:09:48,-803.0,214.0,203.0
15:09:48,-803.0,214.0,203.0
15:09:48,-803.0,214.0,203.0
15:09:48,-821.0,214.0,203.0
15:09:48,-821.0,214.0,203.0
15:09:48,-821.0,214.0,203.0
15:09:48,-821.0,214.0,203.0
15:09:48,-795.0,214.0,204.0
15:09:48,-795.0,214.0,204.0
15:09:48,-795.0,214.0,204.0
15:09:48,-795.0,214.0,204.0
15:09:48,-772.0,214.0,204.0
15:09:48,-772.0,214.0,204.0
15:09:48,-772.0,214.0,204.0
15:09:48,-772.0,214.0,204.0
15:09:48,-746.0,213.0,204.0
15:09:48,-746.0,213.0,204.0
15:09:48,-746.0,213.0,204.0
15:09:48,-746.0,213.0,204.0
15:09:48,-714.0,214.0,204.0
15:09:48,-714.0,214.0,204.0
15:09:48,-714.0,214.0,204.0
15:09:48,-714.0,214.0,204.0
15:09:48,-762.0,212.0,203.0
15:09:48,-762.0,212.0,203.0
15:09:48,-762.0,212.0,203.0
15:09:48,-762.0,212.0,203.0
15:09:48,-789.0,212.0,203.0
15:09:48,-789.0,212.0,203.0
15:09:48,-789.0,212.0,203.0
15:09:48,-789.0,212.0,203.0
15:09:48,-855.0,214.0,203.0
15:09:48,-855.0,214.0,203.0
15:09:48,-855.0,214.0,203.0
15:09:48,-855.0,214.0,203.0
15:09:48,-858.0,212.0,204.0
15:09:48,-858.0,212.0,204.0
15:09:48,-858.0,212.0,204.0
15:09:48,-858.0,212.0,204.0
15:09:48,-861.0,213.0,202.0
15:09:48,-861.0,213.0,202.0
15:09:48,-861.0,213.0,202.0
15:09:48,-861.0,213.0,202.0
15:09:48,-846.0,212.0,204.0
15:09:48,-846.0,212.0,204.0
15:09:48,-846.0,212.0,204.0
15:09:48,-846.0,212.0,204.0
15:09:48,-563.0,214.0,203.0
15:09:48,-563.0,214.0,203.0
15:09:48,-563.0,214.0,203.0
15:09:48,-563.0,214.0,203.0
15:09:48,2.0,214.0,205.0
15:09:48,2.0,214.0,205.0
15:09:48,2.0,214.0,205.0
15:09:48,2.0,214.0,205.0
15:09:48,-983.0,213.0,205.0
15:09:48,-983.0,213.0,205.0
15:09:48,-983.0,213.0,205.0
15:09:48,-983.0,213.0,205.0
15:09:48,-926.0,215.0,203.0
15:09:48,-926.0,215.0,203.0
15:09:48,-926.0,215.0,203.0
15:09:48,-926.0,215.0,203.0
15:09:48,-896.0,213.0,204.0
15:09:48,-896.0,213.0,204.0
15:09:48,-896.0,213.0,204.0
15:09:48,-896.0,213.0,204.0
15:09:48,-866.0,213.0,203.0
15:09:48,-866.0,213.0,203.0
15:09:48,-866.0,213.0,203.0
15:09:48,-866.0,213.0,203.0
15:09:48,-888.0,213.0,203.0
15:09:48,-888.0,213.0,203.0
15:09:48,-888.0,213.0,203.0
15:09:48,-888.0,213.0,203.0
15:09:48,-859.0,213.0,204.0
15:09:48,-859.0,213.0,204.0
15:09:48,-859.0,213.0,204.0
15:09:48,-859.0,213.0,204.0
15:09:48,-848.0,214.0,203.0
15:09:48,-848.0,214.0,203.0
15:09:48,-848.0,214.0,203.0
15:09:48,-848.0,214.0,203.0
15:09:48,-838.0,214.0,204.0
15:09:48,-838.0,214.0,204.0
15:09:48,-838.0,214.0,204.0
15:09:48,-838.0,214.0,204.0
15:09:48,-831.0,214.0,204.0
15:09:48,-831.0,214.0,204.0
15:09:48,-831.0,214.0,204.0
15:09:48,-831.0,214.0,204.0
15:09:48,-797.0,213.0,203.0
15:09:48,-797.0,213.0,203.0
15:09:48,-797.0,213.0,203.0
15:09:48,-797.0,213.0,203.0
15:09:48,-762.0,213.0,203.0
15:09:48,-762.0,213.0,203.0
15:09:48,-762.0,213.0,203.0
15:09:48,-762.0,213.0,203.0
15:09:48,-723.0,214.0,202.0
15:09:48,-723.0,214.0,202.0
15:09:48,-723.0,214.0,202.0
15:09:48,-723.0,214.0,202.0
15:09:48,-723.0,214.0,203.0
15:09:48,-723.0,214.0,203.0
15:09:48,-723.0,214.0,203.0
15:09:48,-723.0,214.0,203.0
15:09:48,-763.0,212.0,203.0
15:09:48,-763.0,212.0,203.0
15:09:48,-763.0,212.0,203.0
15:09:48,-763.0,212.0,203.0
15:09:48,-793.0,212.0,202.0
15:09:48,-793.0,212.0,202.0
15:09:49,-793.0,212.0,202.0
15:09:49,-793.0,212.0,202.0
15:09:49,-869.0,213.0,203.0
15:09:49,-869.0,213.0,203.0
15:09:49,-869.0,213.0,203.0
15:09:49,-869.0,213.0,203.0
15:09:49,-912.0,212.0,203.0
15:09:49,-912.0,212.0,203.0
15:09:49,-912.0,212.0,203.0
15:09:49,-912.0,212.0,203.0
15:09:49,-867.0,213.0,203.0
15:09:49,-867.0,213.0,203.0
15:09:49,-867.0,213.0,203.0
15:09:49,-867.0,213.0,203.0
15:09:49,-897.0,212.0,202.0
15:09:49,-897.0,212.0,202.0
15:09:49,-897.0,212.0,202.0
15:09:49,-897.0,212.0,202.0
15:09:49,-881.0,214.0,201.0
15:09:49,-881.0,214.0,201.0
15:09:49,-881.0,214.0,201.0
15:09:49,-881.0,214.0,201.0
15:09:49,-863.0,213.0,203.0
15:09:49,-863.0,213.0,203.0
15:09:49,-863.0,213.0,203.0
15:09:49,-863.0,213.0,203.0
15:09:49,-872.0,213.0,204.0
15:09:49,-872.0,213.0,204.0
15:09:49,-872.0,213.0,204.0
15:09:49,-872.0,213.0,204.0
15:09:49,-862.0,214.0,204.0
15:09:49,-862.0,214.0,204.0
15:09:49,-862.0,214.0,204.0
15:09:49,-862.0,214.0,204.0
15:09:49,-877.0,214.0,203.0
15:09:49,-877.0,214.0,203.0
15:09:49,-877.0,214.0,203.0
15:09:49,-877.0,214.0,203.0
15:09:49,-862.0,214.0,203.0
15:09:49,-862.0,214.0,203.0
15:09:49,-862.0,214.0,203.0
15:09:49,-862.0,214.0,203.0
15:09:49,-857.0,213.0,204.0
15:09:49,-857.0,213.0,204.0
15:09:49,-857.0,213.0,204.0
15:09:49,-857.0,213.0,204.0
15:09:49,-869.0,214.0,203.0
15:09:49,-869.0,214.0,203.0
15:09:49,-869.0,214.0,203.0
15:09:49,-869.0,214.0,203.0
15:09:49,-882.0,213.0,204.0
15:09:49,-882.0,213.0,204.0
15:09:49,-882.0,213.0,204.0
15:09:49,-882.0,213.0,204.0
15:09:49,-867.0,215.0,203.0
15:09:49,-867.0,215.0,203.0
15:09:49,-867.0,215.0,203.0
15:09:49,-867.0,215.0,203.0
15:09:49,-870.0,214.0,203.0
15:09:49,-870.0,214.0,203.0
15:09:49,-870.0,214.0,203.0
15:09:49,-870.0,214.0,203.0
15:09:49,-855.0,213.0,203.0
15:09:49,-855.0,213.0,203.0
15:09:49,-855.0,213.0,203.0
15:09:49,-855.0,213.0,203.0
15:09:49,-850.0,212.0,204.0
15:09:49,-850.0,212.0,204.0
15:09:49,-850.0,212.0,204.0
15:09:49,-850.0,212.0,204.0
15:09:49,-821.0,213.0,202.0
15:09:49,-821.0,213.0,202.0
15:09:49,-821.0,213.0,202.0
15:09:49,-821.0,213.0,202.0
15:09:49,-749.0,213.0,203.0
15:09:49,-749.0,213.0,203.0
15:09:49,-749.0,213.0,203.0
15:09:49,-749.0,213.0,203.0
15:09:49,-796.0,214.0,203.0
15:09:49,-796.0,214.0,203.0
15:09:49,-796.0,214.0,203.0
15:09:49,-796.0,214.0,203.0
15:09:49,-854.0,212.0,202.0
15:09:49,-854.0,212.0,202.0
15:09:49,-854.0,212.0,202.0
15:09:49,-854.0,212.0,202.0
15:09:49,-904.0,214.0,202.0
15:09:49,-904.0,214.0,202.0
15:09:49,-904.0,214.0,202.0
15:09:49,-904.0,214.0,202.0
15:09:49,-913.0,214.0,204.0
15:09:49,-913.0,214.0,204.0
15:09:49,-913.0,214.0,204.0
15:09:49,-913.0,214.0,204.0
15:09:49,-896.0,214.0,204.0
15:09:49,-896.0,214.0,204.0
15:09:49,-896.0,214.0,204.0
15:09:49,-896.0,214.0,204.0
15:09:49,-882.0,214.0,203.0
15:09:49,-882.0,214.0,203.0
15:09:49,-882.0,214.0,203.0
15:09:49,-882.0,214.0,203.0
15:09:49,-746.0,215.0,203.0
15:09:49,-746.0,215.0,203.0
15:09:49,-746.0,215.0,203.0
15:09:49,-746.0,215.0,203.0
15:09:49,128.0,215.0,204.0
15:09:49,128.0,215.0,204.0
15:09:49,128.0,215.0,204.0
15:09:49,128.0,215.0,204.0
15:09:49,-1104.0,214.0,204.0
15:09:49,-1104.0,214.0,204.0
15:09:49,-1104.0,214.0,204.0
15:09:49,-1104.0,214.0,204.0
15:09:49,-943.0,213.0,204.0
15:09:49,-943.0,213.0,204.0
15:09:49,-943.0,213.0,204.0
15:09:49,-943.0,213.0,204.0
15:09:49,-945.0,213.0,203.0
15:09:49,-945.0,213.0,203.0
15:09:49,-945.0,213.0,203.0
15:09:49,-945.0,213.0,203.0
15:09:49,-939.0,213.0,204.0
15:09:49,-939.0,213.0,204.0
15:09:49,-939.0,213.0,204.0
15:09:49,-939.0,213.0,204.0
15:09:49,-917.0,214.0,204.0
15:09:49,-917.0,214.0,204.0
15:09:49,-917.0,214.0,204.0
15:09:49,-917.0,214.0,204.0
15:09:49,-867.0,214.0,204.0
15:09:49,-867.0,214.0,204.0
15:09:49,-867.0,214.0,204.0
15:09:49,-867.0,214.0,204.0
15:09:49,-932.0,214.0,203.0
15:09:49,-932.0,214.0,203.0
15:09:49,-932.0,214.0,203.0
15:09:49,-932.0,214.0,203.0
15:09:49,-871.0,213.0,203.0
15:09:49,-871.0,213.0,203.0
15:09:49,-871.0,213.0,203.0
15:09:49,-871.0,213.0,203.0
15:09:49,-863.0,214.0,203.0
15:09:49,-863.0,214.0,203.0
15:09:49,-863.0,214.0,203.0
15:09:49,-863.0,214.0,203.0
15:09:49,-819.0,213.0,204.0
15:09:49,-819.0,213.0,204.0
15:09:49,-819.0,213.0,204.0
15:09:49,-819.0,213.0,204.0
15:09:49,-798.0,212.0,202.0
15:09:49,-798.0,212.0,202.0
15:09:49,-798.0,212.0,202.0
15:09:49,-798.0,212.0,202.0
15:09:49,-781.0,214.0,203.0
15:09:49,-781.0,214.0,203.0
15:09:49,-781.0,214.0,203.0
15:09:49,-781.0,214.0,203.0
15:09:49,-744.0,213.0,203.0
15:09:49,-744.0,213.0,203.0
15:09:49,-744.0,213.0,203.0
15:09:49,-744.0,213.0,203.0
15:09:49,-769.0,214.0,202.0
15:09:49,-769.0,214.0,202.0
15:09:49,-769.0,214.0,202.0
15:09:49,-769.0,214.0,202.0
15:09:49,-798.0,214.0,203.0
15:09:49,-798.0,214.0,203.0
15:09:49,-798.0,214.0,203.0
15:09:49,-798.0,214.0,203.0
15:09:49,-908.0,213.0,203.0
15:09:49,-908.0,213.0,203.0
15:09:49,-908.0,213.0,203.0
15:09:49,-908.0,213.0,203.0
15:09:49,-948.0,214.0,204.0
15:09:49,-948.0,214.0,204.0
15:09:49,-948.0,214.0,204.0
15:09:49,-948.0,214.0,204.0
15:09:49,-925.0,214.0,203.0
15:09:49,-925.0,214.0,203.0
15:09:49,-925.0,214.0,203.0
15:09:49,-925.0,214.0,203.0
15:09:49,-932.0,216.0,204.0
15:09:49,-932.0,216.0,204.0
15:09:49,-932.0,216.0,204.0
15:09:49,-932.0,216.0,204.0
15:09:49,-954.0,213.0,202.0
15:09:49,-954.0,213.0,202.0
15:09:49,-954.0,213.0,202.0
15:09:49,-954.0,213.0,202.0
15:09:49,-933.0,214.0,203.0
15:09:49,-933.0,214.0,203.0
15:09:49,-933.0,214.0,203.0
15:09:49,-933.0,214.0,203.0
15:09:49,-943.0,214.0,202.0
15:09:49,-943.0,214.0,202.0
15:09:49,-943.0,214.0,202.0
15:09:49,-943.0,214.0,202.0
15:09:49,-950.0,212.0,204.0
15:09:49,-950.0,212.0,204.0
15:09:49,-950.0,212.0,204.0
15:09:50,-950.0,212.0,204.0
15:09:50,-935.0,213.0,203.0
15:09:50,-935.0,213.0,203.0
15:09:50,-935.0,213.0,203.0
15:09:50,-935.0,213.0,203.0
15:09:50,-930.0,214.0,203.0
15:09:50,-930.0,214.0,203.0
15:09:50,-930.0,214.0,203.0
15:09:50,-930.0,214.0,203.0
15:09:50,-957.0,213.0,203.0
15:09:50,-957.0,213.0,203.0
15:09:50,-957.0,213.0,203.0
15:09:50,-957.0,213.0,203.0
15:09:50,-933.0,213.0,202.0
15:09:50,-933.0,213.0,202.0
15:09:50,-933.0,213.0,202.0
15:09:50,-933.0,213.0,202.0
15:09:50,-930.0,212.0,202.0
15:09:50,-930.0,212.0,202.0
15:09:50,-930.0,212.0,202.0
15:09:50,-930.0,212.0,202.0
15:09:50,-939.0,214.0,203.0
15:09:50,-939.0,214.0,203.0
15:09:50,-939.0,214.0,203.0
15:09:50,-939.0,214.0,203.0
15:09:50,-934.0,214.0,202.0
15:09:50,-934.0,214.0,202.0
15:09:50,-934.0,214.0,202.0
15:09:50,-934.0,214.0,202.0
15:09:50,-937.0,214.0,203.0
15:09:50,-937.0,214.0,203.0
15:09:50,-937.0,214.0,203.0
15:09:50,-937.0,214.0,203.0
15:09:50,-956.0,213.0,201.0
15:09:50,-956.0,213.0,201.0
15:09:50,-956.0,213.0,201.0
15:09:50,-956.0,213.0,201.0
15:09:50,-910.0,212.0,202.0
15:09:50,-910.0,212.0,202.0
15:09:50,-910.0,212.0,202.0
15:09:50,-910.0,212.0,202.0
15:09:50,-835.0,215.0,203.0
15:09:50,-835.0,215.0,203.0
15:09:50,-835.0,215.0,203.0
15:09:50,-835.0,215.0,203.0
15:09:50,-860.0,213.0,202.0
15:09:50,-860.0,213.0,202.0
15:09:50,-860.0,213.0,202.0
15:09:50,-860.0,213.0,202.0
15:09:50,-892.0,213.0,204.0
15:09:50,-892.0,213.0,204.0
15:09:50,-892.0,213.0,204.0
15:09:50,-892.0,213.0,204.0
15:09:50,-986.0,214.0,204.0
15:09:50,-986.0,214.0,204.0
15:09:50,-986.0,214.0,204.0
15:09:50,-986.0,214.0,204.0
15:09:50,-997.0,215.0,204.0
15:09:50,-997.0,215.0,204.0
15:09:50,-997.0,215.0,204.0
15:09:50,-997.0,215.0,204.0
15:09:50,-1000.0,213.0,204.0
15:09:50,-1000.0,213.0,204.0
15:09:50,-1000.0,213.0,204.0
15:09:50,-1000.0,213.0,204.0
15:09:50,-992.0,214.0,204.0
15:09:50,-992.0,214.0,204.0
15:09:50,-992.0,214.0,204.0
15:09:50,-992.0,214.0,204.0
15:09:50,-1004.0,215.0,204.0
15:09:50,-1004.0,215.0,204.0
15:09:50,-1004.0,215.0,204.0
15:09:50,-1004.0,215.0,204.0
15:09:50,-106.0,215.0,204.0
15:09:50,-106.0,215.0,204.0
15:09:50,-106.0,215.0,204.0
15:09:50,-106.0,215.0,204.0
15:09:50,-1056.0,215.0,203.0
15:09:50,-1056.0,215.0,203.0
15:09:50,-1056.0,215.0,203.0
15:09:50,-1056.0,215.0,203.0
15:09:50,-1085.0,213.0,204.0
15:09:50,-1085.0,213.0,204.0
15:09:50,-1085.0,213.0,204.0
15:09:50,-1085.0,213.0,204.0
15:09:50,-1012.0,214.0,203.0
15:09:50,-1012.0,214.0,203.0
15:09:50,-1012.0,214.0,203.0
15:09:50,-1012.0,214.0,203.0
15:09:50,-981.0,214.0,203.0
15:09:50,-981.0,214.0,203.0
15:09:50,-981.0,214.0,203.0
15:09:50,-981.0,214.0,203.0
15:09:50,-1025.0,214.0,203.0
15:09:50,-1025.0,214.0,203.0
15:09:50,-1025.0,214.0,203.0
15:09:50,-1025.0,214.0,203.0
15:09:50,-952.0,214.0,202.0
15:09:50,-952.0,214.0,202.0
15:09:50,-952.0,214.0,202.0
15:09:50,-952.0,214.0,202.0
15:09:50,-980.0,213.0,204.0
15:09:50,-980.0,213.0,204.0
15:09:50,-980.0,213.0,204.0
15:09:50,-980.0,213.0,204.0
15:09:50,-908.0,214.0,204.0
15:09:50,-908.0,214.0,204.0
15:09:50,-908.0,214.0,204.0
15:09:50,-908.0,214.0,204.0
15:09:50,-877.0,214.0,204.0
15:09:50,-877.0,214.0,204.0
15:09:50,-877.0,214.0,204.0
15:09:50,-877.0,214.0,204.0
15:09:50,-891.0,213.0,203.0
15:09:50,-891.0,213.0,203.0
15:09:50,-891.0,213.0,203.0
15:09:50,-891.0,213.0,203.0
15:09:50,-849.0,214.0,204.0
15:09:50,-849.0,214.0,204.0
15:09:50,-849.0,214.0,204.0
15:09:50,-849.0,214.0,204.0
15:09:50,-765.0,214.0,202.0
15:09:50,-765.0,214.0,202.0
15:09:50,-765.0,214.0,202.0
15:09:50,-765.0,214.0,202.0
15:09:50,-742.0,213.0,203.0
15:09:50,-742.0,213.0,203.0
15:09:50,-742.0,213.0,203.0
15:09:50,-742.0,213.0,203.0
15:09:50,-798.0,213.0,203.0
15:09:50,-798.0,213.0,203.0
15:09:50,-798.0,213.0,203.0
15:09:50,-798.0,213.0,203.0
15:09:50,-834.0,213.0,205.0
15:09:50,-834.0,213.0,205.0
15:09:50,-834.0,213.0,205.0
15:09:50,-834.0,213.0,205.0
15:09:50,-896.0,214.0,203.0
15:09:50,-896.0,214.0,203.0
15:09:50,-896.0,214.0,203.0
15:09:50,-896.0,214.0,203.0
15:09:50,-922.0,214.0,203.0
15:09:50,-922.0,214.0,203.0
15:09:50,-922.0,214.0,203.0
15:09:50,-922.0,214.0,203.0
15:09:50,-934.0,213.0,204.0
15:09:50,-934.0,213.0,204.0
15:09:50,-934.0,213.0,204.0
15:09:50,-934.0,213.0,204.0
15:09:50,-946.0,215.0,203.0
15:09:50,-946.0,215.0,203.0
15:09:50,-946.0,215.0,203.0
15:09:50,-946.0,215.0,203.0
15:09:50,-938.0,214.0,203.0
15:09:50,-938.0,214.0,203.0
15:09:50,-938.0,214.0,203.0
15:09:50,-938.0,214.0,203.0
15:09:50,-942.0,214.0,203.0
15:09:50,-942.0,214.0,203.0
15:09:50,-942.0,214.0,203.0
15:09:50,-942.0,214.0,203.0
15:09:50,-943.0,213.0,203.0
15:09:50,-943.0,213.0,203.0
15:09:50,-943.0,213.0,203.0
15:09:50,-943.0,213.0,203.0
15:09:50,-904.0,214.0,203.0
15:09:50,-904.0,214.0,203.0
15:09:50,-904.0,214.0,203.0
15:09:50,-904.0,214.0,203.0
15:09:50,-954.0,214.0,203.0
15:09:50,-954.0,214.0,203.0
15:09:50,-954.0,214.0,203.0
15:09:50,-954.0,214.0,203.0
15:09:50,-923.0,213.0,204.0
15:09:50,-923.0,213.0,204.0
15:09:50,-923.0,213.0,204.0
15:09:50,-923.0,213.0,204.0
15:09:50,-950.0,214.0,204.0
15:09:50,-950.0,214.0,204.0
15:09:50,-950.0,214.0,204.0
15:09:50,-950.0,214.0,204.0
15:09:50,-904.0,214.0,203.0
15:09:50,-904.0,214.0,203.0
15:09:50,-904.0,214.0,203.0
15:09:50,-904.0,214.0,203.0
15:09:50,-927.0,213.0,202.0
15:09:50,-927.0,213.0,202.0
15:09:50,-927.0,213.0,202.0
15:09:50,-927.0,213.0,202.0
15:09:50,-986.0,212.0,204.0
15:09:50,-986.0,212.0,204.0
15:09:50,-986.0,212.0,204.0
15:09:50,-986.0,212.0,204.0
15:09:50,-971.0,213.0,204.0
15:09:50,-971.0,213.0,204.0
15:09:50,-971.0,213.0,204.0
15:09:50,-971.0,213.0,204.0
15:09:50,-950.0,214.0,204.0
15:09:50,-950.0,214.0,204.0
15:09:50,-950.0,214.0,204.0
15:09:51,-950.0,214.0,204.0
15:09:51,-988.0,213.0,203.0
15:09:51,-988.0,213.0,203.0
15:09:51,-988.0,213.0,203.0
15:09:51,-988.0,213.0,203.0
15:09:51,-982.0,216.0,205.0
15:09:51,-982.0,216.0,205.0
15:09:51,-982.0,216.0,205.0
15:09:51,-982.0,216.0,205.0
15:09:51,-901.0,213.0,204.0
15:09:51,-901.0,213.0,204.0
15:09:51,-901.0,213.0,204.0
15:09:51,-901.0,213.0,204.0
15:09:51,-975.0,213.0,203.0
15:09:51,-975.0,213.0,203.0
15:09:51,-975.0,213.0,203.0
15:09:51,-975.0,213.0,203.0
15:09:51,-1011.0,214.0,203.0
15:09:51,-1011.0,214.0,203.0
15:09:51,-1011.0,214.0,203.0
15:09:51,-1011.0,214.0,203.0
15:09:51,-1126.0,214.0,203.0
15:09:51,-1126.0,214.0,203.0
15:09:51,-1126.0,214.0,203.0
15:09:51,-1126.0,214.0,203.0
15:09:51,-1173.0,212.0,204.0
15:09:51,-1173.0,212.0,204.0
15:09:51,-1173.0,212.0,204.0
15:09:51,-1173.0,212.0,204.0
15:09:51,-1234.0,213.0,203.0
15:09:51,-1234.0,213.0,203.0
15:09:51,-1234.0,213.0,203.0
15:09:51,-1234.0,213.0,203.0
15:09:51,-1218.0,213.0,204.0
15:09:51,-1218.0,213.0,204.0
15:09:51,-1218.0,213.0,204.0
15:09:51,-1218.0,213.0,204.0
15:09:51,-1234.0,214.0,203.0
15:09:51,-1234.0,214.0,203.0
15:09:51,-1234.0,214.0,203.0
15:09:51,-1234.0,214.0,203.0
15:09:51,-573.0,214.0,203.0
15:09:51,-573.0,214.0,203.0
15:09:51,-573.0,214.0,203.0
15:09:51,-573.0,214.0,203.0
15:09:51,-1187.0,214.0,204.0
15:09:51,-1187.0,214.0,204.0
15:09:51,-1187.0,214.0,204.0
15:09:51,-1187.0,214.0,204.0
15:09:51,-1468.0,214.0,203.0
15:09:51,-1468.0,214.0,203.0
15:09:51,-1468.0,214.0,203.0
15:09:51,-1468.0,214.0,203.0
15:09:51,-1413.0,214.0,202.0
15:09:51,-1413.0,214.0,202.0
15:09:51,-1413.0,214.0,202.0
15:09:51,-1413.0,214.0,202.0
15:09:51,-1389.0,213.0,202.0
15:09:51,-1389.0,213.0,202.0
15:09:51,-1389.0,213.0,202.0
15:09:51,-1389.0,213.0,202.0
15:09:51,-1394.0,214.0,202.0
15:09:51,-1394.0,214.0,202.0
15:09:51,-1394.0,214.0,202.0
15:09:51,-1394.0,214.0,202.0
15:09:51,-1392.0,214.0,202.0
15:09:51,-1392.0,214.0,202.0
15:09:51,-1392.0,214.0,202.0
15:09:51,-1392.0,214.0,202.0
15:09:51,-1325.0,213.0,204.0
15:09:51,-1325.0,213.0,204.0
15:09:51,-1325.0,213.0,204.0
15:09:51,-1325.0,213.0,204.0
15:09:51,-1337.0,215.0,202.0
15:09:51,-1337.0,215.0,202.0
15:09:51,-1337.0,215.0,202.0
15:09:51,-1337.0,215.0,202.0
15:09:51,-1365.0,213.0,204.0
15:09:51,-1365.0,213.0,204.0
15:09:51,-1365.0,213.0,204.0
15:09:51,-1365.0,213.0,204.0
15:09:51,-1308.0,214.0,204.0
15:09:51,-1308.0,214.0,204.0
15:09:51,-1308.0,214.0,204.0
15:09:51,-1308.0,214.0,204.0
15:09:51,-1285.0,214.0,204.0
15:09:51,-1285.0,214.0,204.0
15:09:51,-1285.0,214.0,204.0
15:09:51,-1285.0,214.0,204.0
15:09:51,-1289.0,214.0,203.0
15:09:51,-1289.0,214.0,203.0
15:09:51,-1289.0,214.0,203.0
15:09:51,-1289.0,214.0,203.0
15:09:51,-1255.0,213.0,204.0
15:09:51,-1255.0,213.0,204.0
15:09:51,-1255.0,213.0,204.0
15:09:51,-1255.0,213.0,204.0
15:09:51,-1245.0,215.0,203.0
15:09:51,-1245.0,215.0,203.0
15:09:51,-1245.0,215.0,203.0
15:09:51,-1245.0,215.0,203.0
15:09:51,-1298.0,214.0,203.0
15:09:51,-1298.0,214.0,203.0
15:09:51,-1298.0,214.0,203.0
15:09:51,-1298.0,214.0,203.0
15:09:51,-1364.0,214.0,203.0
15:09:51,-1364.0,214.0,203.0
15:09:51,-1364.0,214.0,203.0
15:09:51,-1364.0,214.0,203.0
15:09:51,-1429.0,214.0,204.0
15:09:51,-1429.0,214.0,204.0
15:09:51,-1429.0,214.0,204.0
15:09:51,-1429.0,214.0,204.0
15:09:51,-1460.0,213.0,203.0
15:09:51,-1460.0,213.0,203.0
15:09:51,-1460.0,213.0,203.0
15:09:51,-1460.0,213.0,203.0
15:09:51,-1462.0,214.0,203.0
15:09:51,-1462.0,214.0,203.0
15:09:51,-1462.0,214.0,203.0
15:09:51,-1462.0,214.0,203.0
15:09:51,-1467.0,212.0,202.0
15:09:51,-1467.0,212.0,202.0
15:09:51,-1467.0,212.0,202.0
15:09:51,-1467.0,212.0,202.0
15:09:51,-1473.0,214.0,202.0
15:09:51,-1473.0,214.0,202.0
15:09:51,-1473.0,214.0,202.0
15:09:51,-1473.0,214.0,202.0
15:09:51,-1456.0,213.0,203.0
15:09:51,-1456.0,213.0,203.0
15:09:51,-1456.0,213.0,203.0
15:09:51,-1456.0,213.0,203.0
15:09:51,-1464.0,212.0,202.0
15:09:51,-1464.0,212.0,202.0
15:09:51,-1464.0,212.0,202.0
15:09:51,-1464.0,212.0,202.0
15:09:51,-1425.0,214.0,203.0
15:09:51,-1425.0,214.0,203.0
15:09:51,-1425.0,214.0,203.0
15:09:51,-1425.0,214.0,203.0
15:09:51,-1416.0,214.0,202.0
15:09:51,-1416.0,214.0,202.0
15:09:51,-1416.0,214.0,202.0
15:09:51,-1416.0,214.0,202.0
15:09:51,-1409.0,214.0,204.0
15:09:51,-1409.0,214.0,204.0
15:09:51,-1409.0,214.0,204.0
15:09:51,-1409.0,214.0,204.0
15:09:51,-1441.0,213.0,204.0
15:09:51,-1441.0,213.0,204.0
15:09:51,-1441.0,213.0,204.0
15:09:51,-1441.0,213.0,204.0
15:09:51,-1419.0,215.0,205.0
15:09:51,-1419.0,215.0,205.0
15:09:51,-1419.0,215.0,205.0
15:09:51,-1419.0,215.0,205.0
15:09:51,-1397.0,214.0,204.0
15:09:51,-1397.0,214.0,204.0
15:09:51,-1397.0,214.0,204.0
15:09:51,-1397.0,214.0,204.0
15:09:51,-1394.0,214.0,204.0
15:09:51,-1394.0,214.0,204.0
15:09:51,-1394.0,214.0,204.0
15:09:51,-1394.0,214.0,204.0
15:09:51,-1369.0,215.0,205.0
15:09:51,-1369.0,215.0,205.0
15:09:51,-1369.0,215.0,205.0
15:09:51,-1369.0,215.0,205.0
15:09:51,-1406.0,213.0,204.0
15:09:51,-1406.0,213.0,204.0
15:09:51,-1406.0,213.0,204.0
15:09:51,-1406.0,213.0,204.0
15:09:51,-1382.0,213.0,203.0
15:09:51,-1382.0,213.0,203.0
15:09:51,-1382.0,213.0,203.0
15:09:51,-1382.0,213.0,203.0
15:09:51,-1327.0,213.0,203.0
15:09:51,-1327.0,213.0,203.0
15:09:51,-1327.0,213.0,203.0
15:09:51,-1327.0,213.0,203.0
15:09:51,-1245.0,213.0,203.0
15:09:51,-1245.0,213.0,203.0
15:09:51,-1245.0,213.0,203.0
15:09:51,-1245.0,213.0,203.0
15:09:51,-1311.0,213.0,203.0
15:09:51,-1311.0,213.0,203.0
15:09:51,-1311.0,213.0,203.0
15:09:51,-1311.0,213.0,203.0
15:09:51,-1349.0,213.0,202.0
15:09:51,-1349.0,213.0,202.0
15:09:51,-1349.0,213.0,202.0
15:09:51,-1349.0,213.0,202.0
15:09:51,-1408.0,213.0,202.0
15:09:51,-1408.0,213.0,202.0
15:09:51,-1408.0,213.0,202.0
15:09:51,-1408.0,213.0,202.0
15:09:51,-1383.0,212.0,203.0
15:09:51,-1383.0,212.0,203.0
15:09:51,-1383.0,212.0,203.0
15:09:51,-1383.0,212.0,203.0
15:09:51,-1396.0,214.0,204.0
15:09:52,-1396.0,214.0,204.0
15:09:52,-1396.0,214.0,204.0
15:09:52,-1396.0,214.0,204.0
15:09:52,-1401.0,213.0,202.0
15:09:52,-1401.0,213.0,202.0
15:09:52,-1401.0,213.0,202.0
15:09:52,-1401.0,213.0,202.0
15:09:52,-1234.0,214.0,204.0
15:09:52,-1234.0,214.0,204.0
15:09:52,-1234.0,214.0,204.0
15:09:52,-1234.0,214.0,204.0
15:09:52,-298.0,213.0,203.0
15:09:52,-298.0,213.0,203.0
15:09:52,-298.0,213.0,203.0
15:09:52,-298.0,213.0,203.0
15:09:52,-1579.0,214.0,204.0
15:09:52,-1579.0,214.0,204.0
15:09:52,-1579.0,214.0,204.0
15:09:52,-1579.0,214.0,204.0
15:09:52,-1424.0,214.0,204.0
15:09:52,-1424.0,214.0,204.0
15:09:52,-1424.0,214.0,204.0
15:09:52,-1424.0,214.0,204.0
15:09:52,-1451.0,213.0,204.0
15:09:52,-1451.0,213.0,204.0
15:09:52,-1451.0,213.0,204.0
15:09:52,-1451.0,213.0,204.0
15:09:52,-1390.0,214.0,203.0
15:09:52,-1390.0,214.0,203.0
15:09:52,-1390.0,214.0,203.0
15:09:52,-1390.0,214.0,203.0
15:09:52,-1425.0,214.0,203.0
15:09:52,-1425.0,214.0,203.0
15:09:52,-1425.0,214.0,203.0
15:09:52,-1425.0,214.0,203.0
15:09:52,-1391.0,215.0,203.0
15:09:52,-1391.0,215.0,203.0
15:09:52,-1391.0,215.0,203.0
15:09:52,-1391.0,215.0,203.0
15:09:52,-1371.0,213.0,204.0
15:09:52,-1371.0,213.0,204.0
15:09:52,-1371.0,213.0,204.0
15:09:52,-1371.0,213.0,204.0
15:09:52,-1342.0,213.0,203.0
15:09:52,-1342.0,213.0,203.0
15:09:52,-1342.0,213.0,203.0
15:09:52,-1342.0,213.0,203.0
15:09:52,-1308.0,213.0,206.0
15:09:52,-1308.0,213.0,206.0
15:09:52,-1308.0,213.0,206.0
15:09:52,-1308.0,213.0,206.0
15:09:52,-1260.0,213.0,203.0
15:09:52,-1260.0,213.0,203.0
15:09:52,-1260.0,213.0,203.0
15:09:52,-1260.0,213.0,203.0
15:09:52,-1218.0,214.0,201.0
15:09:52,-1218.0,214.0,201.0
15:09:52,-1218.0,214.0,201.0
15:09:52,-1218.0,214.0,201.0
15:09:52,-1134.0,214.0,204.0
15:09:52,-1134.0,214.0,204.0
15:09:52,-1134.0,214.0,204.0
15:09:52,-1134.0,214.0,204.0
15:09:52,-1202.0,215.0,204.0
15:09:52,-1202.0,215.0,204.0
15:09:52,-1202.0,215.0,204.0
15:09:52,-1202.0,215.0,204.0
15:09:52,-1180.0,213.0,203.0
15:09:52,-1180.0,213.0,203.0
15:09:52,-1180.0,213.0,203.0
15:09:52,-1180.0,213.0,203.0
15:09:52,-1255.0,213.0,203.0
15:09:52,-1255.0,213.0,203.0
15:09:52,-1255.0,213.0,203.0
15:09:52,-1255.0,213.0,203.0
15:09:52,-1325.0,214.0,203.0
15:09:52,-1325.0,214.0,203.0
15:09:52,-1325.0,214.0,203.0
15:09:52,-1325.0,214.0,203.0
15:09:52,-1343.0,213.0,203.0
15:09:52,-1343.0,213.0,203.0
15:09:52,-1343.0,213.0,203.0
15:09:52,-1343.0,213.0,203.0
15:09:52,-1389.0,214.0,204.0
15:09:52,-1389.0,214.0,204.0
15:09:52,-1389.0,214.0,204.0
15:09:52,-1389.0,214.0,204.0
15:09:52,-1351.0,215.0,203.0
15:09:52,-1351.0,215.0,203.0
15:09:52,-1351.0,215.0,203.0
15:09:52,-1351.0,215.0,203.0
15:09:52,-1360.0,214.0,202.0
15:09:52,-1360.0,214.0,202.0
15:09:52,-1360.0,214.0,202.0
15:09:52,-1360.0,214.0,202.0
15:09:52,-1343.0,212.0,203.0
15:09:52,-1343.0,212.0,203.0
15:09:52,-1343.0,212.0,203.0
15:09:52,-1343.0,212.0,203.0
15:09:52,-1386.0,213.0,203.0
15:09:52,-1386.0,213.0,203.0
15:09:52,-1386.0,213.0,203.0
15:09:52,-1386.0,213.0,203.0
15:09:52,-1323.0,212.0,202.0
15:09:52,-1323.0,212.0,202.0
15:09:52,-1323.0,212.0,202.0
15:09:52,-1323.0,212.0,202.0
15:09:52,-1282.0,213.0,201.0
15:09:52,-1282.0,213.0,201.0
15:09:52,-1282.0,213.0,201.0
15:09:52,-1282.0,213.0,201.0
15:09:52,-1353.0,214.0,203.0
15:09:52,-1353.0,214.0,203.0
15:09:52,-1353.0,214.0,203.0
15:09:52,-1353.0,214.0,203.0
15:09:52,-1309.0,213.0,203.0
15:09:52,-1309.0,213.0,203.0
15:09:52,-1309.0,213.0,203.0
15:09:52,-1309.0,213.0,203.0
15:09:52,-1306.0,212.0,203.0
15:09:52,-1306.0,212.0,203.0
15:09:52,-1306.0,212.0,203.0
15:09:52,-1306.0,212.0,203.0
15:09:52,-1336.0,214.0,202.0
15:09:52,-1336.0,214.0,202.0
15:09:52,-1336.0,214.0,202.0
15:09:52,-1336.0,214.0,202.0
15:09:52,-1290.0,213.0,202.0
15:09:52,-1290.0,213.0,202.0
15:09:52,-1290.0,213.0,202.0
15:09:52,-1290.0,213.0,202.0
15:09:52,-1319.0,214.0,204.0
15:09:52,-1319.0,214.0,204.0
15:09:52,-1319.0,214.0,204.0
15:09:52,-1319.0,214.0,204.0
15:09:52,-1281.0,215.0,205.0
15:09:52,-1281.0,215.0,205.0
15:09:52,-1281.0,215.0,205.0
15:09:52,-1281.0,215.0,205.0
15:09:52,-1285.0,212.0,204.0
15:09:52,-1285.0,212.0,204.0
15:09:52,-1285.0,212.0,204.0
15:09:52,-1285.0,212.0,204.0
15:09:52,-1285.0,213.0,203.0
15:09:52,-1285.0,213.0,203.0
15:09:52,-1285.0,213.0,203.0
15:09:52,-1285.0,213.0,203.0
15:09:52,-1217.0,215.0,204.0
15:09:52,-1217.0,215.0,204.0
15:09:52,-1217.0,215.0,204.0
15:09:52,-1217.0,215.0,204.0
15:09:52,-1223.0,213.0,202.0
15:09:52,-1223.0,213.0,202.0
15:09:52,-1223.0,213.0,202.0
15:09:52,-1223.0,213.0,202.0
15:09:52,-1242.0,213.0,204.0
15:09:52,-1242.0,213.0,204.0
15:09:52,-1242.0,213.0,204.0
15:09:52,-1242.0,213.0,204.0
15:09:52,-1313.0,214.0,203.0
15:09:52,-1313.0,214.0,203.0
15:09:52,-1313.0,214.0,203.0
15:09:52,-1313.0,214.0,203.0
15:09:52,-1344.0,213.0,203.0
15:09:52,-1344.0,213.0,203.0
15:09:52,-1344.0,213.0,203.0
15:09:52,-1344.0,213.0,203.0
15:09:52,-1349.0,212.0,203.0
15:09:52,-1349.0,212.0,203.0
15:09:52,-1349.0,212.0,203.0
15:09:52,-1349.0,212.0,203.0
15:09:52,-1296.0,213.0,202.0
15:09:52,-1296.0,213.0,202.0
15:09:52,-1296.0,213.0,202.0
15:09:52,-1296.0,213.0,202.0
15:09:52,-1303.0,213.0,202.0
15:09:52,-1303.0,213.0,202.0
15:09:52,-1303.0,213.0,202.0
15:09:52,-1303.0,213.0,202.0
15:09:52,-973.0,214.0,203.0
15:09:52,-973.0,214.0,203.0
15:09:52,-973.0,214.0,203.0
15:09:52,-973.0,214.0,203.0
15:09:52,-454.0,213.0,202.0
15:09:52,-454.0,213.0,202.0
15:09:52,-454.0,213.0,202.0
15:09:52,-454.0,213.0,202.0
15:09:52,-1369.0,213.0,203.0
15:09:52,-1369.0,213.0,203.0
15:09:52,-1369.0,213.0,203.0
15:09:52,-1369.0,213.0,203.0
15:09:52,-1334.0,214.0,202.0
15:09:52,-1334.0,214.0,202.0
15:09:52,-1334.0,214.0,202.0
15:09:52,-1334.0,214.0,202.0
15:09:52,-1311.0,214.0,204.0
15:09:52,-1311.0,214.0,204.0
15:09:52,-1311.0,214.0,204.0
15:09:52,-1311.0,214.0,204.0
15:09:52,-1294.0,214.0,204.0
15:09:53,-1294.0,214.0,204.0
15:09:53,-1294.0,214.0,204.0
15:09:53,-1294.0,214.0,204.0
15:09:53,-1310.0,214.0,203.0
15:09:53,-1310.0,214.0,203.0
15:09:53,-1310.0,214.0,203.0
15:09:53,-1310.0,214.0,203.0
15:09:53,-1278.0,215.0,204.0
15:09:53,-1278.0,215.0,204.0
15:09:53,-1278.0,215.0,204.0
15:09:53,-1278.0,215.0,204.0
15:09:53,-1300.0,214.0,204.0
15:09:53,-1300.0,214.0,204.0
15:09:53,-1300.0,214.0,204.0
15:09:53,-1300.0,214.0,204.0
15:09:53,-1272.0,214.0,204.0
15:09:53,-1272.0,214.0,204.0
15:09:53,-1272.0,214.0,204.0
15:09:53,-1272.0,214.0,204.0
15:09:53,-1202.0,214.0,204.0
15:09:53,-1202.0,214.0,204.0
15:09:53,-1202.0,214.0,204.0
15:09:53,-1202.0,214.0,204.0
15:09:53,-1208.0,214.0,204.0
15:09:53,-1208.0,214.0,204.0
15:09:53,-1208.0,214.0,204.0
15:09:53,-1208.0,214.0,204.0
15:09:53,-1171.0,215.0,202.0
15:09:53,-1171.0,215.0,202.0
15:09:53,-1171.0,215.0,202.0
15:09:53,-1171.0,215.0,202.0
15:09:53,-1125.0,215.0,203.0
15:09:53,-1125.0,215.0,203.0
15:09:53,-1125.0,215.0,203.0
15:09:53,-1125.0,215.0,203.0
15:09:53,-1099.0,215.0,204.0
15:09:53,-1099.0,215.0,204.0
15:09:53,-1099.0,215.0,204.0
15:09:53,-1099.0,215.0,204.0
15:09:53,-1126.0,213.0,203.0
15:09:53,-1126.0,213.0,203.0
15:09:53,-1126.0,213.0,203.0
15:09:53,-1126.0,213.0,203.0
15:09:53,-1225.0,213.0,203.0
15:09:53,-1225.0,213.0,203.0
15:09:53,-1225.0,213.0,203.0
15:09:53,-1225.0,213.0,203.0
15:09:53,-1275.0,213.0,203.0
15:09:53,-1275.0,213.0,203.0
15:09:53,-1275.0,213.0,203.0
15:09:53,-1275.0,213.0,203.0
15:09:53,-1264.0,213.0,201.0
15:09:53,-1264.0,213.0,201.0
15:09:53,-1264.0,213.0,201.0
15:09:53,-1264.0,213.0,201.0
15:09:53,-1268.0,213.0,203.0
15:09:53,-1268.0,213.0,203.0
15:09:53,-1268.0,213.0,203.0
15:09:53,-1268.0,213.0,203.0
15:09:53,-1268.0,213.0,203.0
15:09:53,-1268.0,213.0,203.0
15:09:53,-1268.0,213.0,203.0
15:09:53,-1268.0,213.0,203.0
15:09:53,-1272.0,213.0,204.0
15:09:53,-1272.0,213.0,204.0
15:09:53,-1272.0,213.0,204.0
15:09:53,-1272.0,213.0,204.0
15:09:53,-1227.0,213.0,202.0
15:09:53,-1227.0,213.0,202.0
15:09:53,-1227.0,213.0,202.0
15:09:53,-1227.0,213.0,202.0
15:09:53,-1261.0,213.0,203.0
15:09:53,-1261.0,213.0,203.0
15:09:53,-1261.0,213.0,203.0
15:09:53,-1261.0,213.0,203.0
15:09:53,-1226.0,214.0,203.0
15:09:53,-1226.0,214.0,203.0
15:09:53,-1226.0,214.0,203.0
15:09:53,-1226.0,214.0,203.0
15:09:53,-1237.0,214.0,203.0
15:09:53,-1237.0,214.0,203.0
15:09:53,-1237.0,214.0,203.0
15:09:53,-1237.0,214.0,203.0
15:09:53,-1231.0,213.0,204.0
15:09:53,-1231.0,213.0,204.0
15:09:53,-1231.0,213.0,204.0
15:09:53,-1231.0,213.0,204.0
15:09:53,-1222.0,214.0,204.0
15:09:53,-1222.0,214.0,204.0
15:09:53,-1222.0,214.0,204.0
15:09:53,-1222.0,214.0,204.0
15:09:53,-1236.0,213.0,204.0
15:09:53,-1236.0,213.0,204.0
15:09:53,-1236.0,213.0,204.0
15:09:53,-1236.0,213.0,204.0
15:09:53,-1234.0,214.0,204.0
15:09:53,-1234.0,214.0,204.0
15:09:53,-1234.0,214.0,204.0
15:09:53,-1234.0,214.0,204.0
15:09:53,-1216.0,213.0,203.0
15:09:53,-1216.0,213.0,203.0
15:09:53,-1216.0,213.0,203.0
15:09:53,-1216.0,213.0,203.0
15:09:53,-1241.0,213.0,202.0
15:09:53,-1241.0,213.0,202.0
15:09:53,-1241.0,213.0,202.0
15:09:53,-1241.0,213.0,202.0
15:09:53,-1239.0,215.0,203.0
15:09:53,-1239.0,215.0,203.0
15:09:53,-1239.0,215.0,203.0
15:09:53,-1239.0,215.0,203.0
15:09:53,-1246.0,214.0,203.0
15:09:53,-1246.0,214.0,203.0
15:09:53,-1246.0,214.0,203.0
15:09:53,-1246.0,214.0,203.0
15:09:53,-1197.0,213.0,202.0
15:09:53,-1197.0,213.0,202.0
15:09:53,-1197.0,213.0,202.0
15:09:53,-1197.0,213.0,202.0
15:09:53,-1147.0,214.0,204.0
15:09:53,-1147.0,214.0,204.0
15:09:53,-1147.0,214.0,204.0
15:09:53,-1147.0,214.0,204.0
15:09:53,-1118.0,213.0,202.0
15:09:53,-1118.0,213.0,202.0
15:09:53,-1118.0,213.0,202.0
15:09:53,-1118.0,213.0,202.0
15:09:53,-1158.0,212.0,202.0
15:09:53,-1158.0,212.0,202.0
15:09:53,-1158.0,212.0,202.0
15:09:53,-1158.0,212.0,202.0
15:09:53,-1245.0,214.0,203.0
15:09:53,-1245.0,214.0,203.0
15:09:53,-1245.0,214.0,203.0
15:09:53,-1245.0,214.0,203.0
15:09:53,-1240.0,212.0,204.0
15:09:53,-1240.0,212.0,204.0
15:09:53,-1240.0,212.0,204.0
15:09:53,-1240.0,212.0,204.0
15:09:53,-1237.0,212.0,204.0
15:09:53,-1237.0,212.0,204.0
15:09:53,-1237.0,212.0,204.0
15:09:53,-1237.0,212.0,204.0
15:09:53,-1215.0,213.0,202.0
15:09:53,-1215.0,213.0,202.0
15:09:53,-1215.0,213.0,202.0
15:09:53,-1215.0,213.0,202.0
15:09:53,-1205.0,213.0,204.0
15:09:53,-1205.0,213.0,204.0
15:09:53,-1205.0,213.0,204.0
15:09:53,-1205.0,213.0,204.0
15:09:53,-606.0,213.0,205.0
15:09:53,-606.0,213.0,205.0
15:09:53,-606.0,213.0,205.0
15:09:53,-606.0,213.0,205.0
15:09:53,-930.0,215.0,204.0
15:09:53,-930.0,215.0,204.0
15:09:53,-930.0,215.0,204.0
15:09:53,-930.0,215.0,204.0
15:09:53,-1291.0,214.0,203.0
15:09:53,-1291.0,214.0,203.0
15:09:53,-1291.0,214.0,203.0
15:09:53,-1291.0,214.0,203.0
15:09:53,-1250.0,214.0,203.0
15:09:53,-1250.0,214.0,203.0
15:09:53,-1250.0,214.0,203.0
15:09:53,-1250.0,214.0,203.0
15:09:53,-1247.0,214.0,203.0
15:09:53,-1247.0,214.0,203.0
15:09:53,-1247.0,214.0,203.0
15:09:53,-1247.0,214.0,203.0
15:09:53,-1264.0,215.0,202.0
15:09:53,-1264.0,215.0,202.0
15:09:53,-1264.0,215.0,202.0
15:09:53,-1264.0,215.0,202.0
15:09:53,-1241.0,213.0,203.0
15:09:53,-1241.0,213.0,203.0
15:09:53,-1241.0,213.0,203.0
15:09:53,-1241.0,213.0,203.0
15:09:53,-1181.0,213.0,203.0
15:09:53,-1181.0,213.0,203.0
15:09:53,-1181.0,213.0,203.0
15:09:53,-1181.0,213.0,203.0
15:09:53,-1193.0,214.0,203.0
15:09:53,-1193.0,214.0,203.0
15:09:53,-1193.0,214.0,203.0
15:09:53,-1193.0,214.0,203.0
15:09:53,-1132.0,214.0,203.0
15:09:53,-1132.0,214.0,203.0
15:09:53,-1132.0,214.0,203.0
15:09:53,-1132.0,214.0,203.0
15:09:53,-1126.0,214.0,204.0
15:09:53,-1126.0,214.0,204.0
15:09:53,-1126.0,214.0,204.0
15:09:53,-1126.0,214.0,204.0
15:09:53,-1085.0,214.0,204.0
15:09:53,-1085.0,214.0,204.0
15:09:53,-1085.0,214.0,204.0
15:09:53,-1085.0,214.0,204.0
15:09:53,-1032.0,213.0,203.0
15:09:53,-1032.0,213.0,203.0
15:09:54,-1032.0,213.0,203.0
15:09:54,-1032.0,213.0,203.0
15:09:54,-1003.0,213.0,202.0
15:09:54,-1003.0,213.0,202.0
15:09:54,-1003.0,213.0,202.0
15:09:54,-1003.0,213.0,202.0
15:09:54,-992.0,213.0,202.0
15:09:54,-992.0,213.0,202.0
15:09:54,-992.0,213.0,202.0
15:09:54,-992.0,213.0,202.0
15:09:54,-1018.0,213.0,204.0
15:09:54,-1018.0,213.0,204.0
15:09:54,-1018.0,213.0,204.0
15:09:54,-1018.0,213.0,204.0
15:09:54,-1062.0,214.0,202.0
15:09:54,-1062.0,214.0,202.0
15:09:54,-1062.0,214.0,202.0
15:09:54,-1062.0,214.0,202.0
15:09:54,-1165.0,214.0,204.0
15:09:54,-1165.0,214.0,204.0
15:09:54,-1165.0,214.0,204.0
15:09:54,-1165.0,214.0,204.0
15:09:54,-1139.0,213.0,203.0
15:09:54,-1139.0,213.0,203.0
15:09:54,-1139.0,213.0,203.0
15:09:54,-1139.0,213.0,203.0
15:09:54,-1141.0,213.0,203.0
15:09:54,-1141.0,213.0,203.0
15:09:54,-1141.0,213.0,203.0
15:09:54,-1141.0,213.0,203.0
15:09:54,-1126.0,213.0,204.0
15:09:54,-1126.0,213.0,204.0
15:09:54,-1126.0,213.0,204.0
15:09:54,-1126.0,213.0,204.0
15:09:54,-1129.0,214.0,203.0
15:09:54,-1129.0,214.0,203.0
15:09:54,-1129.0,214.0,203.0
15:09:54,-1129.0,214.0,203.0
15:09:54,-1113.0,214.0,204.0
15:09:54,-1113.0,214.0,204.0
15:09:54,-1113.0,214.0,204.0
15:09:54,-1113.0,214.0,204.0
15:09:54,-1115.0,214.0,203.0
15:09:54,-1115.0,214.0,203.0
15:09:54,-1115.0,214.0,203.0
15:09:54,-1115.0,214.0,203.0
15:09:54,-1084.0,215.0,203.0
15:09:54,-1084.0,215.0,203.0
15:09:54,-1084.0,215.0,203.0
15:09:54,-1084.0,215.0,203.0
15:09:54,-1095.0,213.0,204.0
15:09:54,-1095.0,213.0,204.0
15:09:54,-1095.0,213.0,204.0
15:09:54,-1095.0,213.0,204.0
15:09:54,-1109.0,214.0,204.0
15:09:54,-1109.0,214.0,204.0
15:09:54,-1109.0,214.0,204.0
15:09:54,-1109.0,214.0,204.0
15:09:54,-1080.0,213.0,204.0
15:09:54,-1080.0,213.0,204.0
15:09:54,-1080.0,213.0,204.0
15:09:54,-1080.0,213.0,204.0
15:09:54,-1084.0,213.0,203.0
15:09:54,-1084.0,213.0,203.0
15:09:54,-1084.0,213.0,203.0
15:09:54,-1084.0,213.0,203.0
15:09:54,-1049.0,214.0,204.0
15:09:54,-1049.0,214.0,204.0
15:09:54,-1049.0,214.0,204.0
15:09:54,-1049.0,214.0,204.0
15:09:54,-1070.0,215.0,202.0
15:09:54,-1070.0,215.0,202.0
15:09:54,-1070.0,215.0,202.0
15:09:54,-1070.0,215.0,202.0
15:09:54,-1029.0,214.0,202.0
15:09:54,-1029.0,214.0,202.0
15:09:54,-1029.0,214.0,202.0
15:09:54,-1029.0,214.0,202.0
15:09:54,-1042.0,214.0,204.0
15:09:54,-1042.0,214.0,204.0
15:09:54,-1042.0,214.0,204.0
15:09:54,-1042.0,214.0,204.0
15:09:54,-1006.0,213.0,204.0
15:09:54,-1006.0,213.0,204.0
15:09:54,-1006.0,213.0,204.0
15:09:54,-1006.0,213.0,204.0
15:09:54,-969.0,214.0,204.0
15:09:54,-969.0,214.0,204.0
15:09:54,-969.0,214.0,204.0
15:09:54,-969.0,214.0,204.0
15:09:54,-896.0,213.0,204.0
15:09:54,-896.0,213.0,204.0
15:09:54,-896.0,213.0,204.0
15:09:54,-896.0,213.0,204.0
15:09:54,-934.0,215.0,203.0
15:09:54,-934.0,215.0,203.0
15:09:54,-934.0,215.0,203.0
15:09:54,-934.0,215.0,203.0
15:09:54,-1030.0,213.0,204.0
15:09:54,-1030.0,213.0,204.0
15:09:54,-1030.0,213.0,204.0
15:09:54,-1030.0,213.0,204.0
15:09:54,-1044.0,213.0,204.0
15:09:54,-1044.0,213.0,204.0
15:09:54,-1044.0,213.0,204.0
15:09:54,-1044.0,213.0,204.0
15:09:54,-1051.0,213.0,203.0
15:09:54,-1051.0,213.0,203.0
15:09:54,-1051.0,213.0,203.0
15:09:54,-1051.0,213.0,203.0
15:09:54,-1036.0,213.0,203.0
15:09:54,-1036.0,213.0,203.0
15:09:54,-1036.0,213.0,203.0
15:09:54,-1036.0,213.0,203.0
15:09:54,-1052.0,214.0,202.0
15:09:54,-1052.0,214.0,202.0
15:09:54,-1052.0,214.0,202.0
15:09:54,-1052.0,214.0,202.0
15:09:54,-550.0,213.0,204.0
15:09:54,-550.0,213.0,204.0
15:09:54,-550.0,213.0,204.0
15:09:54,-550.0,213.0,204.0
15:09:54,-503.0,213.0,203.0
15:09:54,-503.0,213.0,203.0
15:09:54,-503.0,213.0,203.0
15:09:54,-503.0,213.0,203.0
15:09:54,-1148.0,212.0,204.0
15:09:54,-1148.0,212.0,204.0
15:09:54,-1148.0,212.0,204.0
15:09:54,-1148.0,212.0,204.0
15:09:54,-1102.0,213.0,203.0
15:09:54,-1102.0,213.0,203.0
15:09:54,-1102.0,213.0,203.0
15:09:54,-1102.0,213.0,203.0
15:09:54,-1088.0,212.0,202.0
15:09:54,-1088.0,212.0,202.0
15:09:54,-1088.0,212.0,202.0
15:09:54,-1088.0,212.0,202.0
15:09:54,-1103.0,212.0,202.0
15:09:54,-1103.0,212.0,202.0
15:09:54,-1103.0,212.0,202.0
15:09:54,-1103.0,212.0,202.0
15:09:54,-1073.0,213.0,203.0
15:09:54,-1073.0,213.0,203.0
15:09:54,-1073.0,213.0,203.0
15:09:54,-1073.0,213.0,203.0
15:09:54,-1089.0,214.0,204.0
15:09:54,-1089.0,214.0,204.0
15:09:54,-1089.0,214.0,204.0
15:09:54,-1089.0,214.0,204.0
15:09:54,-1102.0,214.0,203.0
15:09:54,-1102.0,214.0,203.0
15:09:54,-1102.0,214.0,203.0
15:09:54,-1102.0,214.0,203.0
15:09:54,-1082.0,214.0,203.0
15:09:54,-1082.0,214.0,203.0
15:09:54,-1082.0,214.0,203.0
15:09:54,-1082.0,214.0,203.0
15:09:54,-1051.0,214.0,205.0
15:09:54,-1051.0,214.0,205.0
15:09:54,-1051.0,214.0,205.0
15:09:54,-1051.0,214.0,205.0
15:09:54,-1044.0,215.0,203.0
15:09:54,-1044.0,215.0,203.0
15:09:54,-1044.0,215.0,203.0
15:09:54,-1044.0,215.0,203.0
15:09:54,-1005.0,213.0,204.0
15:09:54,-1005.0,213.0,204.0
15:09:54,-1005.0,213.0,204.0
15:09:54,-1005.0,213.0,204.0
15:09:54,-1007.0,213.0,203.0
15:09:54,-1007.0,213.0,203.0
15:09:54,-1007.0,213.0,203.0
15:09:54,-1007.0,213.0,203.0
15:09:54,-984.0,212.0,203.0
15:09:54,-984.0,212.0,203.0
15:09:54,-984.0,212.0,203.0
15:09:54,-984.0,212.0,203.0
15:09:54,-1031.0,212.0,202.0
15:09:54,-1031.0,212.0,202.0
15:09:54,-1031.0,212.0,202.0
15:09:54,-1031.0,212.0,202.0
15:09:54,-1139.0,212.0,202.0
15:09:54,-1139.0,212.0,202.0
15:09:54,-1139.0,212.0,202.0
15:09:54,-1139.0,212.0,202.0
15:09:54,-1227.0,213.0,203.0
15:09:54,-1227.0,213.0,203.0
15:09:54,-1227.0,213.0,203.0
15:09:54,-1227.0,213.0,203.0
15:09:54,-1237.0,211.0,202.0
15:09:54,-1237.0,211.0,202.0
15:09:54,-1237.0,211.0,202.0
15:09:54,-1237.0,211.0,202.0
15:09:54,-1239.0,212.0,202.0
15:09:54,-1239.0,212.0,202.0
15:09:54,-1239.0,212.0,202.0
15:09:54,-1239.0,212.0,202.0
15:09:54,-1254.0,213.0,201.0
15:09:54,-1254.0,213.0,201.0
15:09:54,-1254.0,213.0,201.0
15:09:55,-1254.0,213.0,201.0
15:09:55,-1269.0,212.0,202.0
15:09:55,-1269.0,212.0,202.0
15:09:55,-1269.0,212.0,202.0
15:09:55,-1269.0,212.0,202.0
15:09:55,-1254.0,213.0,202.0
15:09:55,-1254.0,213.0,202.0
15:09:55,-1254.0,213.0,202.0
15:09:55,-1254.0,213.0,202.0
15:09:55,-1243.0,214.0,202.0
15:09:55,-1243.0,214.0,202.0
15:09:55,-1243.0,214.0,202.0
15:09:55,-1243.0,214.0,202.0
15:09:55,-1267.0,214.0,204.0
15:09:55,-1267.0,214.0,204.0
15:09:55,-1267.0,214.0,204.0
15:09:55,-1267.0,214.0,204.0
15:09:55,-1260.0,215.0,203.0
15:09:55,-1260.0,215.0,203.0
15:09:55,-1260.0,215.0,203.0
15:09:55,-1260.0,215.0,203.0
15:09:55,-1271.0,215.0,203.0
15:09:55,-1271.0,215.0,203.0
15:09:55,-1271.0,215.0,203.0
15:09:55,-1271.0,215.0,203.0
15:09:55,-1275.0,213.0,204.0
15:09:55,-1275.0,213.0,204.0
15:09:55,-1275.0,213.0,204.0
15:09:55,-1275.0,213.0,204.0
15:09:55,-1298.0,212.0,202.0
15:09:55,-1298.0,212.0,202.0
15:09:55,-1298.0,212.0,202.0
15:09:55,-1298.0,212.0,202.0
15:09:55,-1289.0,214.0,203.0
15:09:55,-1289.0,214.0,203.0
15:09:55,-1289.0,214.0,203.0
15:09:55,-1289.0,214.0,203.0
15:09:55,-1313.0,213.0,203.0
15:09:55,-1313.0,213.0,203.0
15:09:55,-1313.0,213.0,203.0
15:09:55,-1313.0,213.0,203.0
15:09:55,-1306.0,213.0,202.0
15:09:55,-1306.0,213.0,202.0
15:09:55,-1306.0,213.0,202.0
15:09:55,-1306.0,213.0,202.0
15:09:55,-1276.0,215.0,203.0
15:09:55,-1276.0,215.0,203.0
15:09:55,-1276.0,215.0,203.0
15:09:55,-1276.0,215.0,203.0
15:09:55,-1275.0,215.0,202.0
15:09:55,-1275.0,215.0,202.0
15:09:55,-1275.0,215.0,202.0
15:09:55,-1275.0,215.0,202.0
15:09:55,-1228.0,214.0,202.0
15:09:55,-1228.0,214.0,202.0
15:09:55,-1228.0,214.0,202.0
15:09:55,-1228.0,214.0,202.0
15:09:55,-1204.0,214.0,203.0
15:09:55,-1204.0,214.0,203.0
15:09:55,-1204.0,214.0,203.0
15:09:55,-1204.0,214.0,203.0
15:09:55,-1262.0,213.0,203.0
15:09:55,-1262.0,213.0,203.0
15:09:55,-1262.0,213.0,203.0
15:09:55,-1262.0,213.0,203.0
15:09:55,-1350.0,213.0,203.0
15:09:55,-1350.0,213.0,203.0
15:09:55,-1350.0,213.0,203.0
15:09:55,-1350.0,213.0,203.0
15:09:55,-1323.0,213.0,204.0
15:09:55,-1323.0,213.0,204.0
15:09:55,-1323.0,213.0,204.0
15:09:55,-1323.0,213.0,204.0
15:09:55,-1349.0,213.0,203.0
15:09:55,-1349.0,213.0,203.0
15:09:55,-1349.0,213.0,203.0
15:09:55,-1349.0,213.0,203.0
15:09:55,-1367.0,212.0,203.0
15:09:55,-1367.0,212.0,203.0
15:09:55,-1367.0,212.0,203.0
15:09:55,-1367.0,212.0,203.0
15:09:55,-1300.0,213.0,201.0
15:09:55,-1300.0,213.0,201.0
15:09:55,-1300.0,213.0,201.0
15:09:55,-1300.0,213.0,201.0
15:09:55,-498.0,212.0,203.0
15:09:55,-498.0,212.0,203.0
15:09:55,-498.0,212.0,203.0
15:09:55,-498.0,212.0,203.0
15:09:55,-1480.0,213.0,203.0
15:09:55,-1480.0,213.0,203.0
15:09:55,-1480.0,213.0,203.0
15:09:55,-1480.0,213.0,203.0
15:09:55,-1433.0,214.0,203.0
15:09:55,-1433.0,214.0,203.0
15:09:55,-1433.0,214.0,203.0
15:09:55,-1433.0,214.0,203.0
15:09:55,-1378.0,215.0,204.0
15:09:55,-1378.0,215.0,204.0
15:09:55,-1378.0,215.0,204.0
15:09:55,-1378.0,215.0,204.0
15:09:55,-1364.0,212.0,204.0
15:09:55,-1364.0,212.0,204.0
15:09:55,-1364.0,212.0,204.0
15:09:55,-1364.0,212.0,204.0
15:09:55,-1336.0,215.0,202.0
15:09:55,-1336.0,215.0,202.0
15:09:55,-1336.0,215.0,202.0
15:09:55,-1336.0,215.0,202.0
15:09:55,-1332.0,213.0,202.0
15:09:55,-1332.0,213.0,202.0
15:09:55,-1332.0,213.0,202.0
15:09:55,-1332.0,213.0,202.0
15:09:55,-1307.0,212.0,202.0
15:09:55,-1307.0,212.0,202.0
15:09:55,-1307.0,212.0,202.0
15:09:55,-1307.0,212.0,202.0
15:09:55,-1280.0,212.0,204.0
15:09:55,-1280.0,212.0,204.0
15:09:55,-1280.0,212.0,204.0
15:09:55,-1280.0,212.0,204.0
15:09:55,-1296.0,212.0,202.0
15:09:55,-1296.0,212.0,202.0
15:09:55,-1296.0,212.0,202.0
15:09:55,-1296.0,212.0,202.0
15:09:55,-1228.0,214.0,202.0
15:09:55,-1228.0,214.0,202.0
15:09:55,-1228.0,214.0,202.0
15:09:55,-1228.0,214.0,202.0
15:09:55,-1188.0,213.0,203.0
15:09:55,-1188.0,213.0,203.0
15:09:55,-1188.0,213.0,203.0
15:09:55,-1188.0,213.0,203.0
15:09:55,-1149.0,214.0,203.0
15:09:55,-1149.0,214.0,203.0
15:09:55,-1149.0,214.0,203.0
15:09:55,-1149.0,214.0,203.0
15:09:55,-1143.0,212.0,203.0
15:09:55,-1143.0,212.0,203.0
15:09:55,-1143.0,212.0,203.0
15:09:55,-1143.0,212.0,203.0
15:09:55,-1150.0,213.0,203.0
15:09:55,-1150.0,213.0,203.0
15:09:55,-1150.0,213.0,203.0
15:09:55,-1150.0,213.0,203.0
15:09:55,-1178.0,213.0,202.0
15:09:55,-1178.0,213.0,202.0
15:09:55,-1178.0,213.0,202.0
15:09:55,-1178.0,213.0,202.0
15:09:55,-1237.0,214.0,205.0
15:09:55,-1237.0,214.0,205.0
15:09:55,-1237.0,214.0,205.0
15:09:55,-1237.0,214.0,205.0
15:09:55,-1277.0,214.0,202.0
15:09:55,-1277.0,214.0,202.0
15:09:55,-1277.0,214.0,202.0
15:09:55,-1277.0,214.0,202.0
15:09:55,-1305.0,213.0,203.0
15:09:55,-1305.0,213.0,203.0
15:09:55,-1305.0,213.0,203.0
15:09:55,-1305.0,213.0,203.0
15:09:55,-1262.0,213.0,204.0
15:09:55,-1262.0,213.0,204.0
15:09:55,-1262.0,213.0,204.0
15:09:55,-1262.0,213.0,204.0
15:09:55,-1295.0,214.0,203.0
15:09:55,-1295.0,214.0,203.0
15:09:55,-1295.0,214.0,203.0
15:09:55,-1295.0,214.0,203.0
15:09:55,-1292.0,213.0,203.0
15:09:55,-1292.0,213.0,203.0
15:09:55,-1292.0,213.0,203.0
15:09:55,-1292.0,213.0,203.0
15:09:55,-1294.0,215.0,202.0
15:09:55,-1294.0,215.0,202.0
15:09:55,-1294.0,215.0,202.0
15:09:55,-1294.0,215.0,202.0
15:09:55,-1279.0,214.0,203.0
15:09:55,-1279.0,214.0,203.0
15:09:55,-1279.0,214.0,203.0
15:09:55,-1279.0,214.0,203.0
15:09:55,-1276.0,214.0,202.0
15:09:55,-1276.0,214.0,202.0
15:09:55,-1276.0,214.0,202.0
15:09:55,-1276.0,214.0,202.0
15:09:55,-1256.0,215.0,203.0
15:09:55,-1256.0,215.0,203.0
15:09:55,-1256.0,215.0,203.0
15:09:55,-1256.0,215.0,203.0
15:09:55,-1250.0,213.0,203.0
15:09:55,-1250.0,213.0,203.0
15:09:55,-1250.0,213.0,203.0
15:09:55,-1250.0,213.0,203.0
15:09:55,-1258.0,214.0,203.0
15:09:55,-1258.0,214.0,203.0
15:09:55,-1258.0,214.0,203.0
15:09:55,-1258.0,214.0,203.0
15:09:55,-1242.0,213.0,203.0
15:09:55,-1242.0,213.0,203.0
15:09:55,-1242.0,213.0,203.0
15:09:55,-1242.0,213.0,203.0
15:09:56,-1247.0,213.0,203.0
15:09:56,-1247.0,213.0,203.0
15:09:56,-1247.0,213.0,203.0
15:09:56,-1247.0,213.0,203.0
15:09:56,-1245.0,214.0,203.0
15:09:56,-1245.0,214.0,203.0
15:09:56,-1245.0,214.0,203.0
15:09:56,-1245.0,214.0,203.0
15:09:56,-1243.0,213.0,203.0
15:09:56,-1243.0,213.0,203.0
15:09:56,-1243.0,213.0,203.0
15:09:56,-1243.0,213.0,203.0
15:09:56,-1239.0,213.0,202.0
15:09:56,-1239.0,213.0,202.0
15:09:56,-1239.0,213.0,202.0
15:09:56,-1239.0,213.0,202.0
15:09:56,-1186.0,214.0,201.0
15:09:56,-1186.0,214.0,201.0
15:09:56,-1186.0,214.0,201.0
15:09:56,-1186.0,214.0,201.0
15:09:56,-1130.0,213.0,203.0
15:09:56,-1130.0,213.0,203.0
15:09:56,-1130.0,213.0,203.0
15:09:56,-1130.0,213.0,203.0
15:09:56,-1114.0,213.0,202.0
15:09:56,-1114.0,213.0,202.0
15:09:56,-1114.0,213.0,202.0
15:09:56,-1114.0,213.0,202.0
15:09:56,-1195.0,213.0,203.0
15:09:56,-1195.0,213.0,203.0
15:09:56,-1195.0,213.0,203.0
15:09:56,-1195.0,213.0,203.0
15:09:56,-1254.0,212.0,204.0
15:09:56,-1254.0,212.0,204.0
15:09:56,-1254.0,212.0,204.0
15:09:56,-1254.0,212.0,204.0
15:09:56,-1251.0,214.0,202.0
15:09:56,-1251.0,214.0,202.0
15:09:56,-1251.0,214.0,202.0
15:09:56,-1251.0,214.0,202.0
15:09:56,-1242.0,214.0,203.0
15:09:56,-1242.0,214.0,203.0
15:09:56,-1242.0,214.0,203.0
15:09:56,-1242.0,214.0,203.0
15:09:56,-1272.0,214.0,203.0
15:09:56,-1272.0,214.0,203.0
15:09:56,-1272.0,214.0,203.0
15:09:56,-1272.0,214.0,203.0
15:09:56,-1219.0,212.0,203.0
15:09:56,-1219.0,212.0,203.0
15:09:56,-1219.0,212.0,203.0
15:09:56,-1219.0,212.0,203.0
15:09:56,-458.0,214.0,204.0
15:09:56,-458.0,214.0,204.0
15:09:56,-458.0,214.0,204.0
15:09:56,-458.0,214.0,204.0
15:09:56,-1252.0,213.0,204.0
15:09:56,-1252.0,213.0,204.0
15:09:56,-1252.0,213.0,204.0
15:09:56,-1252.0,213.0,204.0
15:09:56,-1338.0,213.0,203.0
15:09:56,-1338.0,213.0,203.0
15:09:56,-1338.0,213.0,203.0
15:09:56,-1338.0,213.0,203.0
15:09:56,-1309.0,213.0,203.0
15:09:56,-1309.0,213.0,203.0
15:09:56,-1309.0,213.0,203.0
15:09:56,-1309.0,213.0,203.0
15:09:56,-1281.0,213.0,202.0
15:09:56,-1281.0,213.0,202.0
15:09:56,-1281.0,213.0,202.0
15:09:56,-1281.0,213.0,202.0
15:09:56,-1252.0,212.0,202.0
15:09:56,-1252.0,212.0,202.0
15:09:56,-1252.0,212.0,202.0
15:09:56,-1252.0,212.0,202.0
15:09:56,-1227.0,214.0,202.0
15:09:56,-1227.0,214.0,202.0
15:09:56,-1227.0,214.0,202.0
15:09:56,-1227.0,214.0,202.0
15:09:56,-1194.0,213.0,201.0
15:09:56,-1194.0,213.0,201.0
15:09:56,-1194.0,213.0,201.0
15:09:56,-1194.0,213.0,201.0
15:09:56,-1193.0,213.0,203.0
15:09:56,-1193.0,213.0,203.0
15:09:56,-1193.0,213.0,203.0
15:09:56,-1193.0,213.0,203.0
15:09:56,-1186.0,213.0,202.0
15:09:56,-1186.0,213.0,202.0
15:09:56,-1186.0,213.0,202.0
15:09:56,-1186.0,213.0,202.0
15:09:56,-1132.0,213.0,204.0
15:09:56,-1132.0,213.0,204.0
15:09:56,-1132.0,213.0,204.0
15:09:56,-1132.0,213.0,204.0
15:09:56,-1093.0,214.0,203.0
15:09:56,-1093.0,214.0,203.0
15:09:56,-1093.0,214.0,203.0
15:09:56,-1093.0,214.0,203.0
15:09:56,-1069.0,214.0,204.0
15:09:56,-1069.0,214.0,204.0
15:09:56,-1069.0,214.0,204.0
15:09:56,-1069.0,214.0,204.0
15:09:56,-1030.0,213.0,204.0
15:09:56,-1030.0,213.0,204.0
15:09:56,-1030.0,213.0,204.0
15:09:56,-1030.0,213.0,204.0
15:09:56,-1036.0,214.0,202.0
15:09:56,-1036.0,214.0,202.0
15:09:56,-1036.0,214.0,202.0
15:09:56,-1036.0,214.0,202.0
15:09:56,-1079.0,214.0,203.0
15:09:56,-1079.0,214.0,203.0
15:09:56,-1079.0,214.0,203.0
15:09:56,-1079.0,214.0,203.0
15:09:56,-1145.0,214.0,204.0
15:09:56,-1145.0,214.0,204.0
15:09:56,-1145.0,214.0,204.0
15:09:56,-1145.0,214.0,204.0
15:09:56,-1178.0,213.0,203.0
15:09:56,-1178.0,213.0,203.0
15:09:56,-1178.0,213.0,203.0
15:09:56,-1178.0,213.0,203.0
15:09:56,-1196.0,214.0,204.0
15:09:56,-1196.0,214.0,204.0
15:09:56,-1196.0,214.0,204.0
15:09:56,-1196.0,214.0,204.0
15:09:56,-1206.0,213.0,203.0
15:09:56,-1206.0,213.0,203.0
15:09:56,-1206.0,213.0,203.0
15:09:56,-1206.0,213.0,203.0
15:09:56,-1173.0,212.0,203.0
15:09:56,-1173.0,212.0,203.0
15:09:56,-1173.0,212.0,203.0
15:09:56,-1173.0,212.0,203.0
15:09:56,-1179.0,213.0,203.0
15:09:56,-1179.0,213.0,203.0
15:09:56,-1179.0,213.0,203.0
15:09:56,-1179.0,213.0,203.0
15:09:56,-1180.0,212.0,203.0
15:09:56,-1180.0,212.0,203.0
15:09:56,-1180.0,212.0,203.0
15:09:56,-1180.0,212.0,203.0
15:09:56,-1124.0,212.0,201.0
15:09:56,-1124.0,212.0,201.0
15:09:56,-1124.0,212.0,201.0
15:09:56,-1124.0,212.0,201.0
15:09:56,-1166.0,212.0,203.0
15:09:56,-1166.0,212.0,203.0
15:09:56,-1166.0,212.0,203.0
15:09:56,-1166.0,212.0,203.0
15:09:56,-1147.0,212.0,202.0
15:09:56,-1147.0,212.0,202.0
15:09:56,-1147.0,212.0,202.0
15:09:56,-1147.0,212.0,202.0
15:09:56,-1148.0,213.0,202.0
15:09:56,-1148.0,213.0,202.0
15:09:56,-1148.0,213.0,202.0
15:09:56,-1148.0,213.0,202.0
15:09:56,-1146.0,214.0,201.0
15:09:56,-1146.0,214.0,201.0
15:09:56,-1146.0,214.0,201.0
15:09:56,-1146.0,214.0,201.0
15:09:56,-1156.0,214.0,202.0
15:09:56,-1156.0,214.0,202.0
15:09:56,-1156.0,214.0,202.0
15:09:56,-1156.0,214.0,202.0
15:09:56,-1152.0,214.0,203.0
15:09:56,-1152.0,214.0,203.0
15:09:56,-1152.0,214.0,203.0
15:09:56,-1152.0,214.0,203.0
15:09:56,-1162.0,213.0,203.0
15:09:56,-1162.0,213.0,203.0
15:09:56,-1162.0,213.0,203.0
15:09:56,-1162.0,213.0,203.0
15:09:56,-1116.0,214.0,204.0
15:09:56,-1116.0,214.0,204.0
15:09:56,-1116.0,214.0,204.0
15:09:56,-1116.0,214.0,204.0
15:09:56,-1138.0,215.0,203.0
15:09:56,-1138.0,215.0,203.0
15:09:56,-1138.0,215.0,203.0
15:09:56,-1138.0,215.0,203.0
15:09:56,-1088.0,214.0,202.0
15:09:56,-1088.0,214.0,202.0
15:09:56,-1088.0,214.0,202.0
15:09:56,-1088.0,214.0,202.0
15:09:56,-1052.0,213.0,204.0
15:09:56,-1052.0,213.0,204.0
15:09:56,-1052.0,213.0,204.0
15:09:56,-1052.0,213.0,204.0
15:09:56,-1044.0,213.0,203.0
15:09:56,-1044.0,213.0,203.0
15:09:56,-1044.0,213.0,203.0
15:09:56,-1044.0,213.0,203.0
15:09:56,-1100.0,214.0,204.0
15:09:56,-1100.0,214.0,204.0
15:09:56,-1100.0,214.0,204.0
15:09:56,-1100.0,214.0,204.0
15:09:56,-1160.0,212.0,202.0
15:09:57,-1160.0,212.0,202.0
15:09:57,-1160.0,212.0,202.0
15:09:57,-1160.0,212.0,202.0
15:09:57,-1166.0,213.0,202.0
15:09:57,-1166.0,213.0,202.0
15:09:57,-1166.0,213.0,202.0
15:09:57,-1166.0,213.0,202.0
15:09:57,-1172.0,212.0,202.0
15:09:57,-1172.0,212.0,202.0
15:09:57,-1172.0,212.0,202.0
15:09:57,-1172.0,212.0,202.0
15:09:57,-1174.0,212.0,202.0
15:09:57,-1174.0,212.0,202.0
15:09:57,-1174.0,212.0,202.0
15:09:57,-1174.0,212.0,202.0
15:09:57,-1092.0,214.0,201.0
15:09:57,-1092.0,214.0,201.0
15:09:57,-1092.0,214.0,201.0
15:09:57,-1092.0,214.0,201.0
15:09:57,-145.0,214.0,203.0
15:09:57,-145.0,214.0,203.0
15:09:57,-145.0,214.0,203.0
15:09:57,-145.0,214.0,203.0
15:09:57,-1377.0,212.0,202.0
15:09:57,-1377.0,212.0,202.0
15:09:57,-1377.0,212.0,202.0
15:09:57,-1377.0,212.0,202.0
15:09:57,-1226.0,213.0,203.0
15:09:57,-1226.0,213.0,203.0
15:09:57,-1226.0,213.0,203.0
15:09:57,-1226.0,213.0,203.0
15:09:57,-1203.0,213.0,203.0
15:09:57,-1203.0,213.0,203.0
15:09:57,-1203.0,213.0,203.0
15:09:57,-1203.0,213.0,203.0
15:09:57,-1202.0,214.0,203.0
15:09:57,-1202.0,214.0,203.0
15:09:57,-1202.0,214.0,203.0
15:09:57,-1202.0,214.0,203.0
15:09:57,-1149.0,213.0,204.0
15:09:57,-1149.0,213.0,204.0
15:09:57,-1149.0,213.0,204.0
15:09:57,-1149.0,213.0,204.0
15:09:57,-1148.0,213.0,203.0
15:09:57,-1148.0,213.0,203.0
15:09:57,-1148.0,213.0,203.0
15:09:57,-1148.0,213.0,203.0
15:09:57,-1138.0,215.0,203.0
15:09:57,-1138.0,215.0,203.0
15:09:57,-1138.0,215.0,203.0
15:09:57,-1138.0,215.0,203.0
15:09:57,-1116.0,214.0,202.0
15:09:57,-1116.0,214.0,202.0
15:09:57,-1116.0,214.0,202.0
15:09:57,-1116.0,214.0,202.0
15:09:57,-1076.0,213.0,204.0
15:09:57,-1076.0,213.0,204.0
15:09:57,-1076.0,213.0,204.0
15:09:57,-1076.0,213.0,204.0
15:09:57,-1059.0,214.0,202.0
15:09:57,-1059.0,214.0,202.0
15:09:57,-1059.0,214.0,202.0
15:09:57,-1059.0,214.0,202.0
15:09:57,-1050.0,214.0,203.0
15:09:57,-1050.0,214.0,203.0
15:09:57,-1050.0,214.0,203.0
15:09:57,-1050.0,214.0,203.0
15:09:57,-1000.0,213.0,202.0
15:09:57,-1000.0,213.0,202.0
15:09:57,-1000.0,213.0,202.0
15:09:57,-1000.0,213.0,202.0
15:09:57,-970.0,213.0,202.0
15:09:57,-970.0,213.0,202.0
15:09:57,-970.0,213.0,202.0
15:09:57,-970.0,213.0,202.0
15:09:57,-974.0,213.0,202.0
15:09:57,-974.0,213.0,202.0
15:09:57,-974.0,213.0,202.0
15:09:57,-974.0,213.0,202.0
15:09:57,-1018.0,213.0,202.0
15:09:57,-1018.0,213.0,202.0
15:09:57,-1018.0,213.0,202.0
15:09:57,-1018.0,213.0,202.0
15:09:57,-1105.0,215.0,203.0
15:09:57,-1105.0,215.0,203.0
15:09:57,-1105.0,215.0,203.0
15:09:57,-1105.0,215.0,203.0
15:09:57,-1140.0,214.0,204.0
15:09:57,-1140.0,214.0,204.0
15:09:57,-1140.0,214.0,204.0
15:09:57,-1140.0,214.0,204.0
15:09:57,-1160.0,214.0,204.0
15:09:57,-1160.0,214.0,204.0
15:09:57,-1160.0,214.0,204.0
15:09:57,-1160.0,214.0,204.0
15:09:57,-1171.0,215.0,204.0
15:09:57,-1171.0,215.0,204.0
15:09:57,-1171.0,215.0,204.0
15:09:57,-1171.0,215.0,204.0
15:09:57,-1143.0,213.0,203.0
15:09:57,-1143.0,213.0,203.0
15:09:57,-1143.0,213.0,203.0
15:09:57,-1143.0,213.0,203.0
15:09:57,-1117.0,213.0,203.0
15:09:57,-1117.0,213.0,203.0
15:09:57,-1117.0,213.0,203.0
15:09:57,-1117.0,213.0,203.0
15:09:57,-1136.0,215.0,203.0
15:09:57,-1136.0,215.0,203.0
15:09:57,-1136.0,215.0,203.0
15:09:57,-1136.0,215.0,203.0
15:09:57,-1119.0,215.0,203.0
15:09:57,-1119.0,215.0,203.0
15:09:57,-1119.0,215.0,203.0
15:09:57,-1119.0,215.0,203.0
15:09:57,-1093.0,213.0,203.0
15:09:57,-1093.0,213.0,203.0
15:09:57,-1093.0,213.0,203.0
15:09:57,-1093.0,213.0,203.0
15:09:57,-1110.0,213.0,204.0
15:09:57,-1110.0,213.0,204.0
15:09:57,-1110.0,213.0,204.0
15:09:57,-1110.0,213.0,204.0
15:09:57,-1108.0,214.0,205.0
15:09:57,-1108.0,214.0,205.0
15:09:57,-1108.0,214.0,205.0
15:09:57,-1108.0,214.0,205.0
15:09:57,-1104.0,214.0,202.0
15:09:57,-1104.0,214.0,202.0
15:09:57,-1104.0,214.0,202.0
15:09:57,-1104.0,214.0,202.0
15:09:57,-1096.0,215.0,203.0
15:09:57,-1096.0,215.0,203.0
15:09:57,-1096.0,215.0,203.0
15:09:57,-1096.0,215.0,203.0
15:09:57,-1106.0,214.0,203.0
15:09:57,-1106.0,214.0,203.0
15:09:57,-1106.0,214.0,203.0
15:09:57,-1106.0,214.0,203.0
15:09:57,-1086.0,214.0,204.0
15:09:57,-1086.0,214.0,204.0
15:09:57,-1086.0,214.0,204.0
15:09:57,-1086.0,214.0,204.0
15:09:57,-1101.0,213.0,203.0
15:09:57,-1101.0,213.0,203.0
15:09:57,-1101.0,213.0,203.0
15:09:57,-1101.0,213.0,203.0
15:09:57,-1066.0,214.0,203.0
15:09:57,-1066.0,214.0,203.0
15:09:57,-1066.0,214.0,203.0
15:09:57,-1066.0,214.0,203.0
15:09:57,-1056.0,213.0,203.0
15:09:57,-1056.0,213.0,203.0
15:09:57,-1056.0,213.0,203.0
15:09:57,-1056.0,213.0,203.0
15:09:57,-951.0,214.0,203.0
15:09:57,-951.0,214.0,203.0
15:09:57,-951.0,214.0,203.0
15:09:57,-951.0,214.0,203.0
15:09:57,-991.0,213.0,202.0
15:09:57,-991.0,213.0,202.0
15:09:57,-991.0,213.0,202.0
15:09:57,-991.0,213.0,202.0
15:09:57,-1080.0,213.0,202.0
15:09:57,-1080.0,213.0,202.0
15:09:57,-1080.0,213.0,202.0
15:09:57,-1080.0,213.0,202.0
15:09:57,-1111.0,213.0,204.0
15:09:57,-1111.0,213.0,204.0
15:09:57,-1111.0,213.0,204.0
15:09:57,-1111.0,213.0,204.0
15:09:57,-1111.0,215.0,202.0
15:09:57,-1111.0,215.0,202.0
15:09:57,-1111.0,215.0,202.0
15:09:57,-1111.0,215.0,202.0
15:09:57,-1116.0,213.0,204.0
15:09:57,-1116.0,213.0,204.0
15:09:57,-1116.0,213.0,204.0
15:09:57,-1116.0,213.0,204.0
15:09:57,-1084.0,214.0,205.0
15:09:57,-1084.0,214.0,205.0
15:09:57,-1084.0,214.0,205.0
15:09:57,-1084.0,214.0,205.0
15:09:57,-1008.0,214.0,202.0
15:09:57,-1008.0,214.0,202.0
15:09:57,-1008.0,214.0,202.0
15:09:57,-1008.0,214.0,202.0
15:09:57,-59.0,213.0,203.0
15:09:57,-59.0,213.0,203.0
15:09:57,-59.0,213.0,203.0
15:09:57,-59.0,213.0,203.0
15:09:57,-1318.0,213.0,203.0
15:09:57,-1318.0,213.0,203.0
15:09:57,-1318.0,213.0,203.0
15:09:57,-1318.0,213.0,203.0
15:09:57,-1137.0,213.0,203.0
15:09:57,-1137.0,213.0,203.0
15:09:57,-1137.0,213.0,203.0
15:09:57,-1137.0,213.0,203.0
15:09:57,-1115.0,213.0,204.0
15:09:57,-1115.0,213.0,204.0
15:09:58,-1115.0,213.0,204.0
15:09:58,-1115.0,213.0,204.0
15:09:58,-1091.0,212.0,203.0
15:09:58,-1091.0,212.0,203.0
15:09:58,-1091.0,212.0,203.0
15:09:58,-1091.0,212.0,203.0
15:09:58,-1083.0,213.0,204.0
15:09:58,-1083.0,213.0,204.0
15:09:58,-1083.0,213.0,204.0
15:09:58,-1083.0,213.0,204.0
15:09:58,-1083.0,213.0,203.0
15:09:58,-1083.0,213.0,203.0
15:09:58,-1083.0,213.0,203.0
15:09:58,-1083.0,213.0,203.0
15:09:58,-1036.0,212.0,203.0
15:09:58,-1036.0,212.0,203.0
15:09:58,-1036.0,212.0,203.0
15:09:58,-1036.0,212.0,203.0
15:09:58,-1029.0,214.0,204.0
15:09:58,-1029.0,214.0,204.0
15:09:58,-1029.0,214.0,204.0
15:09:58,-1029.0,214.0,204.0
15:09:58,-985.0,214.0,202.0
15:09:58,-985.0,214.0,202.0
15:09:58,-985.0,214.0,202.0
15:09:58,-985.0,214.0,202.0
15:09:58,-979.0,214.0,201.0
15:09:58,-979.0,214.0,201.0
15:09:58,-979.0,214.0,201.0
15:09:58,-979.0,214.0,201.0
15:09:58,-942.0,214.0,202.0
15:09:58,-942.0,214.0,202.0
15:09:58,-942.0,214.0,202.0
15:09:58,-942.0,214.0,202.0
15:09:58,-906.0,214.0,203.0
15:09:58,-906.0,214.0,203.0
15:09:58,-906.0,214.0,203.0
15:09:58,-906.0,214.0,203.0
15:09:58,-879.0,214.0,204.0
15:09:58,-879.0,214.0,204.0
15:09:58,-879.0,214.0,204.0
15:09:58,-879.0,214.0,204.0
15:09:58,-880.0,215.0,202.0
15:09:58,-880.0,215.0,202.0
15:09:58,-880.0,215.0,202.0
15:09:58,-880.0,215.0,202.0
15:09:58,-930.0,214.0,203.0
15:09:58,-930.0,214.0,203.0
15:09:58,-930.0,214.0,203.0
15:09:58,-930.0,214.0,203.0
15:09:58,-991.0,214.0,204.0
15:09:58,-991.0,214.0,204.0
15:09:58,-991.0,214.0,204.0
15:09:58,-991.0,214.0,204.0
15:09:58,-1057.0,213.0,203.0
15:09:58,-1057.0,213.0,203.0
15:09:58,-1057.0,213.0,203.0
15:09:58,-1057.0,213.0,203.0
15:09:58,-1056.0,213.0,204.0
15:09:58,-1056.0,213.0,204.0
15:09:58,-1056.0,213.0,204.0
15:09:58,-1056.0,213.0,204.0
15:09:58,-1075.0,214.0,202.0
15:09:58,-1075.0,214.0,202.0
15:09:58,-1075.0,214.0,202.0
15:09:58,-1075.0,214.0,202.0
15:09:58,-1043.0,213.0,203.0
15:09:58,-1043.0,213.0,203.0
15:09:58,-1043.0,213.0,203.0
15:09:58,-1043.0,213.0,203.0
15:09:58,-1027.0,214.0,201.0
15:09:58,-1027.0,214.0,201.0
15:09:58,-1027.0,214.0,201.0
15:09:58,-1027.0,214.0,201.0
15:09:58,-1048.0,214.0,202.0
15:09:58,-1048.0,214.0,202.0
15:09:58,-1048.0,214.0,202.0
15:09:58,-1048.0,214.0,202.0
15:09:58,-1050.0,214.0,204.0
15:09:58,-1050.0,214.0,204.0
15:09:58,-1050.0,214.0,204.0
15:09:58,-1050.0,214.0,204.0
15:09:58,-1026.0,213.0,204.0
15:09:58,-1026.0,213.0,204.0
15:09:58,-1026.0,213.0,204.0
15:09:58,-1026.0,213.0,204.0
15:09:58,-1032.0,213.0,203.0
15:09:58,-1032.0,213.0,203.0
15:09:58,-1032.0,213.0,203.0
15:09:58,-1032.0,213.0,203.0
15:09:58,-1041.0,213.0,204.0
15:09:58,-1041.0,213.0,204.0
15:09:58,-1041.0,213.0,204.0
15:09:58,-1041.0,213.0,204.0
15:09:58,-1064.0,213.0,204.0
15:09:58,-1064.0,213.0,204.0
15:09:58,-1064.0,213.0,204.0
15:09:58,-1064.0,213.0,204.0
15:09:58,-1053.0,212.0,201.0
15:09:58,-1053.0,212.0,201.0
15:09:58,-1053.0,212.0,201.0
15:09:58,-1053.0,212.0,201.0
15:09:58,-1051.0,214.0,202.0
15:09:58,-1051.0,214.0,202.0
15:09:58,-1051.0,214.0,202.0
15:09:58,-1051.0,214.0,202.0
15:09:58,-1062.0,214.0,203.0
15:09:58,-1062.0,214.0,203.0
15:09:58,-1062.0,214.0,203.0
15:09:58,-1062.0,214.0,203.0
15:09:58,-1061.0,214.0,202.0
15:09:58,-1061.0,214.0,202.0
15:09:58,-1061.0,214.0,202.0
15:09:58,-1061.0,214.0,202.0
15:09:58,-1070.0,213.0,203.0
15:09:58,-1070.0,213.0,203.0
15:09:58,-1070.0,213.0,203.0
15:09:58,-1070.0,213.0,203.0
15:09:58,-1041.0,214.0,202.0
15:09:58,-1041.0,214.0,202.0
15:09:58,-1041.0,214.0,202.0
15:09:58,-1041.0,214.0,202.0
15:09:58,-984.0,212.0,202.0
15:09:58,-984.0,212.0,202.0
15:09:58,-984.0,212.0,202.0
15:09:58,-984.0,212.0,202.0
15:09:58,-976.0,214.0,205.0
15:09:58,-976.0,214.0,205.0
15:09:58,-976.0,214.0,205.0
15:09:58,-976.0,214.0,205.0
15:09:58,-1042.0,213.0,203.0
15:09:58,-1042.0,213.0,203.0
15:09:58,-1042.0,213.0,203.0
15:09:58,-1042.0,213.0,203.0
15:09:58,-1158.0,214.0,204.0
15:09:58,-1158.0,214.0,204.0
15:09:58,-1158.0,214.0,204.0
15:09:58,-1158.0,214.0,204.0
15:09:58,-1149.0,214.0,203.0
15:09:58,-1149.0,214.0,203.0
15:09:58,-1149.0,214.0,203.0
15:09:58,-1149.0,214.0,203.0
15:09:58,-1172.0,214.0,204.0
15:09:58,-1172.0,214.0,204.0
15:09:58,-1172.0,214.0,204.0
15:09:58,-1172.0,214.0,204.0
15:09:58,-1184.0,212.0,203.0
15:09:58,-1184.0,212.0,203.0
15:09:58,-1184.0,212.0,203.0
15:09:58,-1184.0,212.0,203.0
15:09:58,-1180.0,215.0,202.0
15:09:58,-1180.0,215.0,202.0
15:09:58,-1180.0,215.0,202.0
15:09:58,-1180.0,215.0,202.0
15:09:58,-623.0,214.0,202.0
15:09:58,-623.0,214.0,202.0
15:09:58,-623.0,214.0,202.0
15:09:58,-623.0,214.0,202.0
15:09:58,-789.0,214.0,202.0
15:09:58,-789.0,214.0,202.0
15:09:58,-789.0,214.0,202.0
15:09:58,-789.0,214.0,202.0
15:09:58,-1332.0,214.0,203.0
15:09:58,-1332.0,214.0,203.0
15:09:58,-1332.0,214.0,203.0
15:09:58,-1332.0,214.0,203.0
15:09:58,-1270.0,213.0,203.0
15:09:58,-1270.0,213.0,203.0
15:09:58,-1270.0,213.0,203.0
15:09:58,-1270.0,213.0,203.0
15:09:58,-1292.0,214.0,203.0
15:09:58,-1292.0,214.0,203.0
15:09:58,-1292.0,214.0,203.0
15:09:58,-1292.0,214.0,203.0
15:09:58,-1264.0,213.0,203.0
15:09:58,-1264.0,213.0,203.0
15:09:58,-1264.0,213.0,203.0
15:09:58,-1264.0,213.0,203.0
15:09:58,-1251.0,214.0,204.0
15:09:58,-1251.0,214.0,204.0
15:09:58,-1251.0,214.0,204.0
15:09:58,-1251.0,214.0,204.0
15:09:58,-1251.0,215.0,203.0
15:09:58,-1251.0,215.0,203.0
15:09:58,-1251.0,215.0,203.0
15:09:58,-1251.0,215.0,203.0
15:09:58,-1255.0,214.0,203.0
15:09:58,-1255.0,214.0,203.0
15:09:58,-1255.0,214.0,203.0
15:09:58,-1255.0,214.0,203.0
15:09:58,-1218.0,214.0,204.0
15:09:58,-1218.0,214.0,204.0
15:09:58,-1218.0,214.0,204.0
15:09:58,-1218.0,214.0,204.0
15:09:58,-1203.0,214.0,204.0
15:09:58,-1203.0,214.0,204.0
15:09:58,-1203.0,214.0,204.0
15:09:58,-1203.0,214.0,204.0
15:09:58,-1175.0,213.0,203.0
15:09:58,-1175.0,213.0,203.0
15:09:59,-1175.0,213.0,203.0
15:09:59,-1175.0,213.0,203.0
15:09:59,-1151.0,213.0,202.0
15:09:59,-1151.0,213.0,202.0
15:09:59,-1151.0,213.0,202.0
15:09:59,-1151.0,213.0,202.0
15:09:59,-1106.0,213.0,201.0
15:09:59,-1106.0,213.0,201.0
15:09:59,-1106.0,213.0,201.0
15:09:59,-1106.0,213.0,201.0
15:09:59,-1120.0,213.0,203.0
15:09:59,-1120.0,213.0,203.0
15:09:59,-1120.0,213.0,203.0
15:09:59,-1120.0,213.0,203.0
15:09:59,-1170.0,213.0,202.0
15:09:59,-1170.0,213.0,202.0
15:09:59,-1170.0,213.0,202.0
15:09:59,-1170.0,213.0,202.0
15:09:59,-1216.0,212.0,201.0
15:09:59,-1216.0,212.0,201.0
15:09:59,-1216.0,212.0,201.0
15:09:59,-1216.0,212.0,201.0
15:09:59,-1286.0,214.0,202.0
15:09:59,-1286.0,214.0,202.0
15:09:59,-1286.0,214.0,202.0
15:09:59,-1286.0,214.0,202.0
15:09:59,-1319.0,213.0,201.0
15:09:59,-1319.0,213.0,201.0
15:09:59,-1319.0,213.0,201.0
15:09:59,-1319.0,213.0,201.0
15:09:59,-1307.0,214.0,202.0
15:09:59,-1307.0,214.0,202.0
15:09:59,-1307.0,214.0,202.0
15:09:59,-1307.0,214.0,202.0
15:09:59,-1317.0,214.0,202.0
15:09:59,-1317.0,214.0,202.0
15:09:59,-1317.0,214.0,202.0
15:09:59,-1317.0,214.0,202.0
15:09:59,-1300.0,213.0,203.0
15:09:59,-1300.0,213.0,203.0
15:09:59,-1300.0,213.0,203.0
15:09:59,-1300.0,213.0,203.0
15:09:59,-1313.0,213.0,203.0
15:09:59,-1313.0,213.0,203.0
15:09:59,-1313.0,213.0,203.0
15:09:59,-1313.0,213.0,203.0
15:09:59,-1280.0,215.0,203.0
15:09:59,-1280.0,215.0,203.0
15:09:59,-1280.0,215.0,203.0
15:09:59,-1280.0,215.0,203.0
15:09:59,-1280.0,213.0,204.0
15:09:59,-1280.0,213.0,204.0
15:09:59,-1280.0,213.0,204.0
15:09:59,-1280.0,213.0,204.0
15:09:59,-1294.0,213.0,203.0
15:09:59,-1294.0,213.0,203.0
15:09:59,-1294.0,213.0,203.0
15:09:59,-1294.0,213.0,203.0
15:09:59,-1268.0,215.0,202.0
15:09:59,-1268.0,215.0,202.0
15:09:59,-1268.0,215.0,202.0
15:09:59,-1268.0,215.0,202.0
15:09:59,-1284.0,214.0,202.0
15:09:59,-1284.0,214.0,202.0
15:09:59,-1284.0,214.0,202.0
15:09:59,-1284.0,214.0,202.0
15:09:59,-1271.0,213.0,203.0
15:09:59,-1271.0,213.0,203.0
15:09:59,-1271.0,213.0,203.0
15:09:59,-1271.0,213.0,203.0
15:09:59,-1281.0,213.0,203.0
15:09:59,-1281.0,213.0,203.0
15:09:59,-1281.0,213.0,203.0
15:09:59,-1281.0,213.0,203.0
15:09:59,-1271.0,214.0,204.0
15:09:59,-1271.0,214.0,204.0
15:09:59,-1271.0,214.0,204.0
15:09:59,-1271.0,214.0,204.0
15:09:59,-1254.0,212.0,203.0
15:09:59,-1254.0,212.0,203.0
15:09:59,-1254.0,212.0,203.0
15:09:59,-1254.0,212.0,203.0
15:09:59,-1273.0,213.0,204.0
15:09:59,-1273.0,213.0,204.0
15:09:59,-1273.0,213.0,204.0
15:09:59,-1273.0,213.0,204.0
15:09:59,-1263.0,212.0,203.0
15:09:59,-1263.0,212.0,203.0
15:09:59,-1263.0,212.0,203.0
15:09:59,-1263.0,212.0,203.0
15:09:59,-1213.0,213.0,204.0
15:09:59,-1213.0,213.0,204.0
15:09:59,-1213.0,213.0,204.0
15:09:59,-1213.0,213.0,204.0
15:09:59,-1135.0,214.0,202.0
15:09:59,-1135.0,214.0,202.0
15:09:59,-1135.0,214.0,202.0
15:09:59,-1135.0,214.0,202.0
15:09:59,-1105.0,214.0,203.0
15:09:59,-1105.0,214.0,203.0
15:09:59,-1105.0,214.0,203.0
15:09:59,-1105.0,214.0,203.0
15:09:59,-1167.0,215.0,202.0
15:09:59,-1167.0,215.0,202.0
15:09:59,-1167.0,215.0,202.0
15:09:59,-1167.0,215.0,202.0
15:09:59,-1250.0,214.0,203.0
15:09:59,-1250.0,214.0,203.0
15:09:59,-1250.0,214.0,203.0
15:09:59,-1250.0,214.0,203.0
15:09:59,-1291.0,215.0,203.0
15:09:59,-1291.0,215.0,203.0
15:09:59,-1291.0,215.0,203.0
15:09:59,-1291.0,215.0,203.0
15:09:59,-1272.0,214.0,202.0
15:09:59,-1272.0,214.0,202.0
15:09:59,-1272.0,214.0,202.0
15:09:59,-1272.0,214.0,202.0
15:09:59,-1256.0,213.0,204.0
15:09:59,-1256.0,213.0,204.0
15:09:59,-1256.0,213.0,204.0
15:09:59,-1256.0,213.0,204.0
15:09:59,-1252.0,213.0,202.0
15:09:59,-1252.0,213.0,202.0
15:09:59,-1252.0,213.0,202.0
15:09:59,-1252.0,213.0,202.0
15:09:59,-704.0,213.0,203.0
15:09:59,-704.0,213.0,203.0
15:09:59,-704.0,213.0,203.0
15:09:59,-704.0,213.0,203.0
15:09:59,-757.0,213.0,202.0
15:09:59,-757.0,213.0,202.0
15:09:59,-757.0,213.0,202.0
15:09:59,-757.0,213.0,202.0
15:09:59,-1358.0,214.0,202.0
15:09:59,-1358.0,214.0,202.0
15:09:59,-1358.0,214.0,202.0
15:09:59,-1358.0,214.0,202.0
15:09:59,-1264.0,215.0,204.0
15:09:59,-1264.0,215.0,204.0
15:09:59,-1264.0,215.0,204.0
15:09:59,-1264.0,215.0,204.0
15:09:59,-1271.0,214.0,203.0
15:09:59,-1271.0,214.0,203.0
15:09:59,-1271.0,214.0,203.0
15:09:59,-1271.0,214.0,203.0
15:09:59,-1272.0,213.0,203.0
15:09:59,-1272.0,213.0,203.0
15:09:59,-1272.0,213.0,203.0
15:09:59,-1272.0,213.0,203.0
15:09:59,-1225.0,214.0,203.0
15:09:59,-1225.0,214.0,203.0
15:09:59,-1225.0,214.0,203.0
15:09:59,-1225.0,214.0,203.0
15:09:59,-1224.0,215.0,204.0
15:09:59,-1224.0,215.0,204.0
15:09:59,-1224.0,215.0,204.0
15:09:59,-1224.0,215.0,204.0
15:09:59,-1191.0,214.0,203.0
15:09:59,-1191.0,214.0,203.0
15:09:59,-1191.0,214.0,203.0
15:09:59,-1191.0,214.0,203.0
15:09:59,-1178.0,213.0,203.0
15:09:59,-1178.0,213.0,203.0
15:09:59,-1178.0,213.0,203.0
15:09:59,-1178.0,213.0,203.0
15:09:59,-1162.0,214.0,202.0
15:09:59,-1162.0,214.0,202.0
15:09:59,-1162.0,214.0,202.0
15:09:59,-1162.0,214.0,202.0
15:09:59,-1124.0,213.0,202.0
15:09:59,-1124.0,213.0,202.0
15:09:59,-1124.0,213.0,202.0
15:09:59,-1124.0,213.0,202.0
15:09:59,-1062.0,213.0,202.0
15:09:59,-1062.0,213.0,202.0
15:09:59,-1062.0,213.0,202.0
15:09:59,-1062.0,213.0,202.0
15:09:59,-1045.0,213.0,202.0
15:09:59,-1045.0,213.0,202.0
15:09:59,-1045.0,213.0,202.0
15:09:59,-1045.0,213.0,202.0
15:09:59,-1034.0,212.0,202.0
15:09:59,-1034.0,212.0,202.0
15:09:59,-1034.0,212.0,202.0
15:09:59,-1034.0,212.0,202.0
15:09:59,-1066.0,213.0,201.0
15:09:59,-1066.0,213.0,201.0
15:09:59,-1066.0,213.0,201.0
15:09:59,-1066.0,213.0,201.0
15:09:59,-1109.0,214.0,201.0
15:09:59,-1109.0,214.0,201.0
15:09:59,-1109.0,214.0,201.0
15:09:59,-1109.0,214.0,201.0
15:09:59,-1174.0,214.0,202.0
15:09:59,-1174.0,214.0,202.0
15:09:59,-1174.0,214.0,202.0
15:09:59,-1174.0,214.0,202.0
15:09:59,-1192.0,212.0,203.0
15:09:59,-1192.0,212.0,203.0
15:09:59,-1192.0,212.0,203.0
15:10:00,-1192.0,212.0,203.0
15:10:00,-1188.0,212.0,202.0
15:10:00,-1188.0,212.0,202.0
15:10:00,-1188.0,212.0,202.0
15:10:00,-1188.0,212.0,202.0
15:10:00,-1196.0,213.0,201.0
15:10:00,-1196.0,213.0,201.0
15:10:00,-1196.0,213.0,201.0
15:10:00,-1196.0,213.0,201.0
15:10:00,-1186.0,213.0,201.0
15:10:00,-1186.0,213.0,201.0
15:10:00,-1186.0,213.0,201.0
15:10:00,-1186.0,213.0,201.0
15:10:00,-1183.0,213.0,202.0
15:10:00,-1183.0,213.0,202.0
15:10:00,-1183.0,213.0,202.0
15:10:00,-1183.0,213.0,202.0
15:10:00,-1181.0,213.0,203.0
15:10:00,-1181.0,213.0,203.0
15:10:00,-1181.0,213.0,203.0
15:10:00,-1181.0,213.0,203.0
15:10:00,-1152.0,214.0,202.0
15:10:00,-1152.0,214.0,202.0
15:10:00,-1152.0,214.0,202.0
15:10:00,-1152.0,214.0,202.0
15:10:00,-1133.0,213.0,201.0
15:10:00,-1133.0,213.0,201.0
15:10:00,-1133.0,213.0,201.0
15:10:00,-1133.0,213.0,201.0
15:10:00,-1156.0,213.0,203.0
15:10:00,-1156.0,213.0,203.0
15:10:00,-1156.0,213.0,203.0
15:10:00,-1156.0,213.0,203.0
15:10:00,-1144.0,215.0,203.0
15:10:00,-1144.0,215.0,203.0
15:10:00,-1144.0,215.0,203.0
15:10:00,-1144.0,215.0,203.0
15:10:00,-1168.0,213.0,203.0
15:10:00,-1168.0,213.0,203.0
15:10:00,-1168.0,213.0,203.0
15:10:00,-1168.0,213.0,203.0
15:10:00,-1161.0,213.0,203.0
15:10:00,-1161.0,213.0,203.0
15:10:00,-1161.0,213.0,203.0
15:10:00,-1161.0,213.0,203.0
15:10:00,-1158.0,215.0,203.0
15:10:00,-1158.0,215.0,203.0
15:10:00,-1158.0,215.0,203.0
15:10:00,-1158.0,215.0,203.0
15:10:00,-1144.0,213.0,203.0
15:10:00,-1144.0,213.0,203.0
15:10:00,-1144.0,213.0,203.0
15:10:00,-1144.0,213.0,203.0
15:10:00,-1172.0,214.0,202.0
15:10:00,-1172.0,214.0,202.0
15:10:00,-1172.0,214.0,202.0
15:10:00,-1172.0,214.0,202.0
15:10:00,-1142.0,212.0,203.0
15:10:00,-1142.0,212.0,203.0
15:10:00,-1142.0,212.0,203.0
15:10:00,-1142.0,212.0,203.0
15:10:00,-1112.0,213.0,201.0
15:10:00,-1112.0,213.0,201.0
15:10:00,-1112.0,213.0,201.0
15:10:00,-1112.0,213.0,201.0
15:10:00,-1034.0,213.0,202.0
15:10:00,-1034.0,213.0,202.0
15:10:00,-1034.0,213.0,202.0
15:10:00,-1034.0,213.0,202.0
15:10:00,-1067.0,212.0,203.0
15:10:00,-1067.0,212.0,203.0
15:10:00,-1067.0,212.0,203.0
15:10:00,-1067.0,212.0,203.0
15:10:00,-1101.0,213.0,202.0
15:10:00,-1101.0,213.0,202.0
15:10:00,-1101.0,213.0,202.0
15:10:00,-1101.0,213.0,202.0
15:10:00,-1194.0,213.0,202.0
15:10:00,-1194.0,213.0,202.0
15:10:00,-1194.0,213.0,202.0
15:10:00,-1194.0,213.0,202.0
15:10:00,-1177.0,215.0,203.0
15:10:00,-1177.0,215.0,203.0
15:10:00,-1177.0,215.0,203.0
15:10:00,-1177.0,215.0,203.0
15:10:00,-1177.0,213.0,204.0
15:10:00,-1177.0,213.0,204.0
15:10:00,-1177.0,213.0,204.0
15:10:00,-1177.0,213.0,204.0
15:10:00,-1212.0,213.0,201.0
15:10:00,-1212.0,213.0,201.0
15:10:00,-1212.0,213.0,201.0
15:10:00,-1212.0,213.0,201.0
15:10:00,-1182.0,213.0,202.0
15:10:00,-1182.0,213.0,202.0
15:10:00,-1182.0,213.0,202.0
15:10:00,-1182.0,213.0,202.0
15:10:00,-421.0,214.0,203.0
15:10:00,-421.0,214.0,203.0
15:10:00,-421.0,214.0,203.0
15:10:00,-421.0,214.0,203.0
15:10:00,-1212.0,213.0,203.0
15:10:00,-1212.0,213.0,203.0
15:10:00,-1212.0,213.0,203.0
15:10:00,-1212.0,213.0,203.0
15:10:00,-1264.0,212.0,203.0
15:10:00,-1264.0,212.0,203.0
15:10:00,-1264.0,212.0,203.0
15:10:00,-1264.0,212.0,203.0
15:10:00,-1231.0,213.0,202.0
15:10:00,-1231.0,213.0,202.0
15:10:00,-1231.0,213.0,202.0
15:10:00,-1231.0,213.0,202.0
15:10:00,-1242.0,213.0,202.0
15:10:00,-1242.0,213.0,202.0
15:10:00,-1242.0,213.0,202.0
15:10:00,-1242.0,213.0,202.0
15:10:00,-1219.0,213.0,201.0
15:10:00,-1219.0,213.0,201.0
15:10:00,-1219.0,213.0,201.0
15:10:00,-1219.0,213.0,201.0
15:10:00,-1204.0,213.0,203.0
15:10:00,-1204.0,213.0,203.0
15:10:00,-1204.0,213.0,203.0
15:10:00,-1204.0,213.0,203.0
15:10:00,-1187.0,214.0,202.0
15:10:00,-1187.0,214.0,202.0
15:10:00,-1187.0,214.0,202.0
15:10:00,-1187.0,214.0,202.0
15:10:00,-1176.0,212.0,202.0
15:10:00,-1176.0,212.0,202.0
15:10:00,-1176.0,212.0,202.0
15:10:00,-1176.0,212.0,202.0
15:10:00,-1149.0,214.0,202.0
15:10:00,-1149.0,214.0,202.0
15:10:00,-1149.0,214.0,202.0
15:10:00,-1149.0,214.0,202.0
15:10:00,-1161.0,214.0,202.0
15:10:00,-1161.0,214.0,202.0
15:10:00,-1161.0,214.0,202.0
15:10:00,-1161.0,214.0,202.0
15:10:00,-1107.0,213.0,203.0
15:10:00,-1107.0,213.0,203.0
15:10:00,-1107.0,213.0,203.0
15:10:00,-1107.0,213.0,203.0
15:10:00,-1066.0,213.0,203.0
15:10:00,-1066.0,213.0,203.0
15:10:00,-1066.0,213.0,203.0
15:10:00,-1066.0,213.0,203.0
15:10:00,-1016.0,213.0,203.0
15:10:00,-1016.0,213.0,203.0
15:10:00,-1016.0,213.0,203.0
15:10:00,-1016.0,213.0,203.0
15:10:00,-1043.0,214.0,203.0
15:10:00,-1043.0,214.0,203.0
15:10:00,-1043.0,214.0,203.0
15:10:00,-1043.0,214.0,203.0
15:10:00,-1097.0,214.0,203.0
15:10:00,-1097.0,214.0,203.0
15:10:00,-1097.0,214.0,203.0
15:10:00,-1097.0,214.0,203.0
15:10:00,-1178.0,213.0,203.0
15:10:00,-1178.0,213.0,203.0
15:10:00,-1178.0,213.0,203.0
15:10:00,-1178.0,213.0,203.0
15:10:00,-1210.0,214.0,204.0
15:10:00,-1210.0,214.0,204.0
15:10:00,-1210.0,214.0,204.0
15:10:00,-1210.0,214.0,204.0
15:10:00,-1227.0,214.0,204.0
15:10:00,-1227.0,214.0,204.0
15:10:00,-1227.0,214.0,204.0
15:10:00,-1227.0,214.0,204.0
15:10:00,-1231.0,214.0,203.0
15:10:00,-1231.0,214.0,203.0
15:10:00,-1231.0,214.0,203.0
15:10:00,-1231.0,214.0,203.0
15:10:00,-1227.0,212.0,203.0
15:10:00,-1227.0,212.0,203.0
15:10:00,-1227.0,212.0,203.0
15:10:00,-1227.0,212.0,203.0
15:10:00,-1213.0,214.0,203.0
15:10:00,-1213.0,214.0,203.0
15:10:00,-1213.0,214.0,203.0
15:10:00,-1213.0,214.0,203.0
15:10:00,-1213.0,214.0,202.0
15:10:00,-1213.0,214.0,202.0
15:10:00,-1213.0,214.0,202.0
15:10:00,-1213.0,214.0,202.0
15:10:00,-1195.0,214.0,204.0
15:10:00,-1195.0,214.0,204.0
15:10:00,-1195.0,214.0,204.0
15:10:00,-1195.0,214.0,204.0
15:10:00,-1183.0,214.0,204.0
15:10:00,-1183.0,214.0,204.0
15:10:00,-1183.0,214.0,204.0
15:10:00,-1183.0,214.0,204.0
15:10:00,-1179.0,213.0,202.0
15:10:00,-1179.0,213.0,202.0
15:10:00,-1179.0,213.0,202.0
15:10:00,-1179.0,213.0,202.0
15:10:01,-1229.0,213.0,203.0
15:10:01,-1229.0,213.0,203.0
15:10:01,-1229.0,213.0,203.0
15:10:01,-1229.0,213.0,203.0
15:10:01,-1165.0,213.0,203.0
15:10:01,-1165.0,213.0,203.0
15:10:01,-1165.0,213.0,203.0
15:10:01,-1165.0,213.0,203.0
15:10:01,-1191.0,213.0,203.0
15:10:01,-1191.0,213.0,203.0
15:10:01,-1191.0,213.0,203.0
15:10:01,-1191.0,213.0,203.0
15:10:01,-1184.0,212.0,204.0
15:10:01,-1184.0,212.0,204.0
15:10:01,-1184.0,212.0,204.0
15:10:01,-1184.0,212.0,204.0
15:10:01,-1192.0,213.0,201.0
15:10:01,-1192.0,213.0,201.0
15:10:01,-1192.0,213.0,201.0
15:10:01,-1192.0,213.0,201.0
15:10:01,-1211.0,213.0,202.0
15:10:01,-1211.0,213.0,202.0
15:10:01,-1211.0,213.0,202.0
15:10:01,-1211.0,213.0,202.0
15:10:01,-1192.0,213.0,202.0
15:10:01,-1192.0,213.0,202.0
15:10:01,-1192.0,213.0,202.0
15:10:01,-1192.0,213.0,202.0
15:10:01,-1127.0,212.0,202.0
15:10:01,-1127.0,212.0,202.0
15:10:01,-1127.0,212.0,202.0
15:10:01,-1127.0,212.0,202.0
15:10:01,-1101.0,213.0,202.0
15:10:01,-1101.0,213.0,202.0
15:10:01,-1101.0,213.0,202.0
15:10:01,-1101.0,213.0,202.0
15:10:01,-1076.0,213.0,202.0
15:10:01,-1076.0,213.0,202.0
15:10:01,-1076.0,213.0,202.0
15:10:01,-1076.0,213.0,202.0
15:10:01,-1146.0,212.0,202.0
15:10:01,-1146.0,212.0,202.0
15:10:01,-1146.0,212.0,202.0
15:10:01,-1146.0,212.0,202.0
15:10:01,-1222.0,213.0,202.0
15:10:01,-1222.0,213.0,202.0
15:10:01,-1222.0,213.0,202.0
15:10:01,-1222.0,213.0,202.0
15:10:01,-1219.0,213.0,204.0
15:10:01,-1219.0,213.0,204.0
15:10:01,-1219.0,213.0,204.0
15:10:01,-1219.0,213.0,204.0
15:10:01,-1214.0,214.0,203.0
15:10:01,-1214.0,214.0,203.0
15:10:01,-1214.0,214.0,203.0
15:10:01,-1214.0,214.0,203.0
15:10:01,-1221.0,212.0,203.0
15:10:01,-1221.0,212.0,203.0
15:10:01,-1221.0,212.0,203.0
15:10:01,-1221.0,212.0,203.0
15:10:01,-1230.0,213.0,202.0
15:10:01,-1230.0,213.0,202.0
15:10:01,-1230.0,213.0,202.0
15:10:01,-1230.0,213.0,202.0
15:10:01,-411.0,213.0,204.0
15:10:01,-411.0,213.0,204.0
15:10:01,-411.0,213.0,204.0
15:10:01,-411.0,213.0,204.0
15:10:01,-1341.0,213.0,203.0
15:10:01,-1341.0,213.0,203.0
15:10:01,-1341.0,213.0,203.0
15:10:01,-1341.0,213.0,203.0
15:10:01,-1324.0,214.0,203.0
15:10:01,-1324.0,214.0,203.0
15:10:01,-1324.0,214.0,203.0
15:10:01,-1324.0,214.0,203.0
15:10:01,-1265.0,214.0,202.0
15:10:01,-1265.0,214.0,202.0
15:10:01,-1265.0,214.0,202.0
15:10:01,-1265.0,214.0,202.0
15:10:01,-1284.0,214.0,202.0
15:10:01,-1284.0,214.0,202.0
15:10:01,-1284.0,214.0,202.0
15:10:01,-1284.0,214.0,202.0
15:10:01,-1270.0,213.0,203.0
15:10:01,-1270.0,213.0,203.0
15:10:01,-1270.0,213.0,203.0
15:10:01,-1270.0,213.0,203.0
15:10:01,-1251.0,214.0,204.0
15:10:01,-1251.0,214.0,204.0
15:10:01,-1251.0,214.0,204.0
15:10:01,-1251.0,214.0,204.0
15:10:01,-1249.0,212.0,203.0
15:10:01,-1249.0,212.0,203.0
15:10:01,-1249.0,212.0,203.0
15:10:01,-1249.0,212.0,203.0
15:10:01,-1228.0,213.0,204.0
15:10:01,-1228.0,213.0,204.0
15:10:01,-1228.0,213.0,204.0
15:10:01,-1228.0,213.0,204.0
15:10:01,-1189.0,214.0,202.0
15:10:01,-1189.0,214.0,202.0
15:10:01,-1189.0,214.0,202.0
15:10:01,-1189.0,214.0,202.0
15:10:01,-1201.0,212.0,203.0
15:10:01,-1201.0,212.0,203.0
15:10:01,-1201.0,212.0,203.0
15:10:01,-1201.0,212.0,203.0
15:10:01,-1162.0,213.0,202.0
15:10:01,-1162.0,213.0,202.0
15:10:01,-1162.0,213.0,202.0
15:10:01,-1162.0,213.0,202.0
15:10:01,-1121.0,214.0,203.0
15:10:01,-1121.0,214.0,203.0
15:10:01,-1121.0,214.0,203.0
15:10:01,-1121.0,214.0,203.0
15:10:01,-1104.0,212.0,202.0
15:10:01,-1104.0,212.0,202.0
15:10:01,-1104.0,212.0,202.0
15:10:01,-1104.0,212.0,202.0
15:10:01,-1112.0,214.0,204.0
15:10:01,-1112.0,214.0,204.0
15:10:01,-1112.0,214.0,204.0
15:10:01,-1112.0,214.0,204.0
15:10:01,-1187.0,214.0,202.0
15:10:01,-1187.0,214.0,202.0
15:10:01,-1187.0,214.0,202.0
15:10:01,-1187.0,214.0,202.0
15:10:01,-1272.0,213.0,203.0
15:10:01,-1272.0,213.0,203.0
15:10:01,-1272.0,213.0,203.0
15:10:01,-1272.0,213.0,203.0
15:10:01,-1330.0,213.0,204.0
15:10:01,-1330.0,213.0,204.0
15:10:01,-1330.0,213.0,204.0
15:10:01,-1330.0,213.0,204.0
15:10:01,-1347.0,214.0,203.0
15:10:01,-1347.0,214.0,203.0
15:10:01,-1347.0,214.0,203.0
15:10:01,-1347.0,214.0,203.0
15:10:01,-1355.0,213.0,204.0
15:10:01,-1355.0,213.0,204.0
15:10:01,-1355.0,213.0,204.0
15:10:01,-1355.0,213.0,204.0
15:10:01,-1344.0,213.0,204.0
15:10:01,-1344.0,213.0,204.0
15:10:01,-1344.0,213.0,204.0
15:10:01,-1344.0,213.0,204.0
15:10:01,-1387.0,213.0,203.0
15:10:01,-1387.0,213.0,203.0
15:10:01,-1387.0,213.0,203.0
15:10:01,-1387.0,213.0,203.0
15:10:01,-1356.0,213.0,203.0
15:10:01,-1356.0,213.0,203.0
15:10:01,-1356.0,213.0,203.0
15:10:01,-1356.0,213.0,203.0
15:10:01,-1376.0,214.0,203.0
15:10:01,-1376.0,214.0,203.0
15:10:01,-1376.0,214.0,203.0
15:10:01,-1376.0,214.0,203.0
15:10:01,-1357.0,214.0,203.0
15:10:01,-1357.0,214.0,203.0
15:10:01,-1357.0,214.0,203.0
15:10:01,-1357.0,214.0,203.0
15:10:01,-1373.0,212.0,204.0
15:10:01,-1373.0,212.0,204.0
15:10:01,-1373.0,212.0,204.0
15:10:01,-1373.0,212.0,204.0
15:10:01,-1400.0,213.0,203.0
15:10:01,-1400.0,213.0,203.0
15:10:01,-1400.0,213.0,203.0
15:10:01,-1400.0,213.0,203.0
15:10:01,-1387.0,214.0,202.0
15:10:01,-1387.0,214.0,202.0
15:10:01,-1387.0,214.0,202.0
15:10:01,-1387.0,214.0,202.0
15:10:01,-1411.0,215.0,203.0
15:10:01,-1411.0,215.0,203.0
15:10:01,-1411.0,215.0,203.0
15:10:01,-1411.0,215.0,203.0
15:10:01,-1406.0,214.0,203.0
15:10:01,-1406.0,214.0,203.0
15:10:01,-1406.0,214.0,203.0
15:10:01,-1406.0,214.0,203.0
15:10:01,-1400.0,213.0,203.0
15:10:01,-1400.0,213.0,203.0
15:10:01,-1400.0,213.0,203.0
15:10:01,-1400.0,213.0,203.0
15:10:01,-1422.0,213.0,202.0
15:10:01,-1422.0,213.0,202.0
15:10:01,-1422.0,213.0,202.0
15:10:01,-1422.0,213.0,202.0
15:10:01,-1417.0,214.0,203.0
15:10:01,-1417.0,214.0,203.0
15:10:01,-1417.0,214.0,203.0
15:10:01,-1417.0,214.0,203.0
15:10:01,-1409.0,213.0,202.0
15:10:01,-1409.0,213.0,202.0
15:10:01,-1409.0,213.0,202.0
15:10:01,-1409.0,213.0,202.0
15:10:01,-1357.0,213.0,203.0
15:10:02,-1357.0,213.0,203.0
15:10:02,-1357.0,213.0,203.0
15:10:02,-1357.0,213.0,203.0
15:10:02,-1332.0,214.0,204.0
15:10:02,-1332.0,214.0,204.0
15:10:02,-1332.0,214.0,204.0
15:10:02,-1332.0,214.0,204.0
15:10:02,-1375.0,213.0,202.0
15:10:02,-1375.0,213.0,202.0
15:10:02,-1375.0,213.0,202.0
15:10:02,-1375.0,213.0,202.0
15:10:02,-1450.0,213.0,201.0
15:10:02,-1450.0,213.0,201.0
15:10:02,-1450.0,213.0,201.0
15:10:02,-1450.0,213.0,201.0
15:10:02,-1482.0,213.0,203.0
15:10:02,-1482.0,213.0,203.0
15:10:02,-1482.0,213.0,203.0
15:10:02,-1482.0,213.0,203.0
15:10:02,-1481.0,214.0,201.0
15:10:02,-1481.0,214.0,201.0
15:10:02,-1481.0,214.0,201.0
15:10:02,-1481.0,214.0,201.0
15:10:02,-1500.0,214.0,202.0
15:10:02,-1500.0,214.0,202.0
15:10:02,-1500.0,214.0,202.0
15:10:02,-1500.0,214.0,202.0
15:10:02,-1488.0,213.0,203.0
15:10:02,-1488.0,213.0,203.0
15:10:02,-1488.0,213.0,203.0
15:10:02,-1488.0,213.0,203.0
15:10:02,-974.0,213.0,203.0
15:10:02,-974.0,213.0,203.0
15:10:02,-974.0,213.0,203.0
15:10:02,-974.0,213.0,203.0
15:10:02,-1070.0,213.0,203.0
15:10:02,-1070.0,213.0,203.0
15:10:02,-1070.0,213.0,203.0
15:10:02,-1070.0,213.0,203.0
15:10:02,-1544.0,213.0,203.0
15:10:02,-1544.0,213.0,203.0
15:10:02,-1544.0,213.0,203.0
15:10:02,-1544.0,213.0,203.0
15:10:02,-1541.0,214.0,202.0
15:10:02,-1541.0,214.0,202.0
15:10:02,-1541.0,214.0,202.0
15:10:02,-1541.0,214.0,202.0
15:10:02,-1534.0,215.0,202.0
15:10:02,-1534.0,215.0,202.0
15:10:02,-1534.0,215.0,202.0
15:10:02,-1534.0,215.0,202.0
15:10:02,-1716.0,215.0,202.0
15:10:02,-1716.0,215.0,202.0
15:10:02,-1716.0,215.0,202.0
15:10:02,-1716.0,215.0,202.0
15:10:02,-1301.0,215.0,202.0
15:10:02,-1301.0,215.0,202.0
15:10:02,-1301.0,215.0,202.0
15:10:02,-1301.0,215.0,202.0
15:10:02,-1438.0,212.0,202.0
15:10:02,-1438.0,212.0,202.0
15:10:02,-1438.0,212.0,202.0
15:10:02,-1438.0,212.0,202.0
15:10:02,-1450.0,213.0,204.0
15:10:02,-1450.0,213.0,204.0
15:10:02,-1450.0,213.0,204.0
15:10:02,-1450.0,213.0,204.0
15:10:02,-1493.0,214.0,202.0
15:10:02,-1493.0,214.0,202.0
15:10:02,-1493.0,214.0,202.0
15:10:02,-1493.0,214.0,202.0
15:10:02,-1543.0,215.0,203.0
15:10:02,-1543.0,215.0,203.0
15:10:02,-1543.0,215.0,203.0
15:10:02,-1543.0,215.0,203.0
15:10:02,-1496.0,213.0,203.0
15:10:02,-1496.0,213.0,203.0
15:10:02,-1496.0,213.0,203.0
15:10:02,-1496.0,213.0,203.0
15:10:02,-1333.0,213.0,203.0
15:10:02,-1333.0,213.0,203.0
15:10:02,-1333.0,213.0,203.0
15:10:02,-1333.0,213.0,203.0
15:10:02,-1147.0,214.0,202.0
15:10:02,-1147.0,214.0,202.0
15:10:02,-1147.0,214.0,202.0
15:10:02,-1147.0,214.0,202.0
15:10:02,-1489.0,213.0,203.0
15:10:02,-1489.0,213.0,203.0
15:10:02,-1489.0,213.0,203.0
15:10:02,-1489.0,213.0,203.0
15:10:02,-1455.0,212.0,203.0
15:10:02,-1455.0,212.0,203.0
15:10:02,-1455.0,212.0,203.0
15:10:02,-1455.0,212.0,203.0
15:10:02,-1532.0,212.0,203.0
15:10:02,-1532.0,212.0,203.0
15:10:02,-1532.0,212.0,203.0
15:10:02,-1532.0,212.0,203.0
15:10:02,-1585.0,213.0,202.0
15:10:02,-1585.0,213.0,202.0
15:10:02,-1585.0,213.0,202.0
15:10:02,-1585.0,213.0,202.0
15:10:02,-1703.0,212.0,203.0
15:10:02,-1703.0,212.0,203.0
15:10:02,-1703.0,212.0,203.0
15:10:02,-1703.0,212.0,203.0
15:10:02,-1684.0,212.0,201.0
15:10:02,-1684.0,212.0,201.0
15:10:02,-1684.0,212.0,201.0
15:10:02,-1684.0,212.0,201.0
15:10:02,-1742.0,214.0,202.0
15:10:02,-1742.0,214.0,202.0
15:10:02,-1742.0,214.0,202.0
15:10:02,-1742.0,214.0,202.0
15:10:02,-1676.0,214.0,203.0
15:10:02,-1676.0,214.0,203.0
15:10:02,-1676.0,214.0,203.0
15:10:02,-1676.0,214.0,203.0
15:10:02,-1709.0,212.0,202.0
15:10:02,-1709.0,212.0,202.0
15:10:02,-1709.0,212.0,202.0
15:10:02,-1709.0,212.0,202.0
15:10:02,-1763.0,213.0,203.0
15:10:02,-1763.0,213.0,203.0
15:10:02,-1763.0,213.0,203.0
15:10:02,-1763.0,213.0,203.0
15:10:02,-1602.0,213.0,202.0
15:10:02,-1602.0,213.0,202.0
15:10:02,-1602.0,213.0,202.0
15:10:02,-1602.0,213.0,202.0
15:10:02,-1634.0,214.0,203.0
15:10:02,-1634.0,214.0,203.0
15:10:02,-1634.0,214.0,203.0
15:10:02,-1634.0,214.0,203.0
15:10:02,-1641.0,214.0,203.0
15:10:02,-1641.0,214.0,203.0
15:10:02,-1641.0,214.0,203.0
15:10:02,-1641.0,214.0,203.0
15:10:02,-1607.0,213.0,202.0
15:10:02,-1607.0,213.0,202.0
15:10:02,-1607.0,213.0,202.0
15:10:02,-1607.0,213.0,202.0
15:10:02,-1770.0,215.0,202.0
15:10:02,-1770.0,215.0,202.0
15:10:02,-1770.0,215.0,202.0
15:10:02,-1770.0,215.0,202.0
15:10:02,-1678.0,214.0,202.0
15:10:02,-1678.0,214.0,202.0
15:10:02,-1678.0,214.0,202.0
15:10:02,-1678.0,214.0,202.0
15:10:02,-1681.0,212.0,203.0
15:10:02,-1681.0,212.0,203.0
15:10:02,-1681.0,212.0,203.0
15:10:02,-1681.0,212.0,203.0
15:10:02,-1734.0,213.0,203.0
15:10:02,-1734.0,213.0,203.0
15:10:02,-1734.0,213.0,203.0
15:10:02,-1734.0,213.0,203.0
15:10:02,-1667.0,213.0,203.0
15:10:02,-1667.0,213.0,203.0
15:10:02,-1667.0,213.0,203.0
15:10:02,-1667.0,213.0,203.0
15:10:02,-1622.0,212.0,203.0
15:10:02,-1622.0,212.0,203.0
15:10:02,-1622.0,212.0,203.0
15:10:02,-1622.0,212.0,203.0
15:10:02,-1624.0,213.0,202.0
15:10:02,-1624.0,213.0,202.0
15:10:02,-1624.0,213.0,202.0
15:10:02,-1624.0,213.0,202.0
15:10:02,-1614.0,213.0,202.0
15:10:02,-1614.0,213.0,202.0
15:10:02,-1614.0,213.0,202.0
15:10:02,-1614.0,213.0,202.0
15:10:02,-1421.0,214.0,203.0
15:10:02,-1421.0,214.0,203.0
15:10:02,-1421.0,214.0,203.0
15:10:02,-1421.0,214.0,203.0
15:10:02,-1538.0,214.0,203.0
15:10:02,-1538.0,214.0,203.0
15:10:02,-1538.0,214.0,203.0
15:10:02,-1538.0,214.0,203.0
15:10:02,-1660.0,213.0,203.0
15:10:02,-1660.0,213.0,203.0
15:10:02,-1660.0,213.0,203.0
15:10:02,-1660.0,213.0,203.0
15:10:02,-1703.0,213.0,202.0
15:10:02,-1703.0,213.0,202.0
15:10:02,-1703.0,213.0,202.0
15:10:02,-1703.0,213.0,202.0
15:10:02,-1521.0,213.0,202.0
15:10:02,-1521.0,213.0,202.0
15:10:02,-1521.0,213.0,202.0
15:10:02,-1521.0,213.0,202.0
15:10:02,-1607.0,213.0,204.0
15:10:02,-1607.0,213.0,204.0
15:10:02,-1607.0,213.0,204.0
15:10:02,-1607.0,213.0,204.0
15:10:02,-1596.0,214.0,203.0
15:10:02,-1596.0,214.0,203.0
15:10:03,-1596.0,214.0,203.0
15:10:03,-1596.0,214.0,203.0
15:10:03,-1247.0,213.0,204.0
15:10:03,-1247.0,213.0,204.0
15:10:03,-1247.0,213.0,204.0
15:10:03,-1247.0,213.0,204.0
15:10:03,-525.0,214.0,202.0
15:10:03,-525.0,214.0,202.0
15:10:03,-525.0,214.0,202.0
15:10:03,-525.0,214.0,202.0
15:10:03,-1704.0,213.0,204.0
15:10:03,-1704.0,213.0,204.0
15:10:03,-1704.0,213.0,204.0
15:10:03,-1704.0,213.0,204.0
15:10:03,-1687.0,213.0,205.0
15:10:03,-1687.0,213.0,205.0
15:10:03,-1687.0,213.0,205.0
15:10:03,-1687.0,213.0,205.0
15:10:03,-1622.0,213.0,202.0
15:10:03,-1622.0,213.0,202.0
15:10:03,-1622.0,213.0,202.0
15:10:03,-1622.0,213.0,202.0
15:10:03,-1612.0,214.0,202.0
15:10:03,-1612.0,214.0,202.0
15:10:03,-1612.0,214.0,202.0
15:10:03,-1612.0,214.0,202.0
15:10:03,-1592.0,212.0,203.0
15:10:03,-1592.0,212.0,203.0
15:10:03,-1592.0,212.0,203.0
15:10:03,-1592.0,212.0,203.0
15:10:03,-1610.0,215.0,202.0
15:10:03,-1610.0,215.0,202.0
15:10:03,-1610.0,215.0,202.0
15:10:03,-1610.0,215.0,202.0
15:10:03,-1522.0,213.0,203.0
15:10:03,-1522.0,213.0,203.0
15:10:03,-1522.0,213.0,203.0
15:10:03,-1522.0,213.0,203.0
15:10:03,-1592.0,214.0,202.0
15:10:03,-1592.0,214.0,202.0
15:10:03,-1592.0,214.0,202.0
15:10:03,-1592.0,214.0,202.0
15:10:03,-1523.0,214.0,202.0
15:10:03,-1523.0,214.0,202.0
15:10:03,-1523.0,214.0,202.0
15:10:03,-1523.0,214.0,202.0
15:10:03,-1521.0,212.0,203.0
15:10:03,-1521.0,212.0,203.0
15:10:03,-1521.0,212.0,203.0
15:10:03,-1521.0,212.0,203.0
15:10:03,-1502.0,213.0,202.0
15:10:03,-1502.0,213.0,202.0
15:10:03,-1502.0,213.0,202.0
15:10:03,-1502.0,213.0,202.0
15:10:03,-1411.0,213.0,201.0
15:10:03,-1411.0,213.0,201.0
15:10:03,-1411.0,213.0,201.0
15:10:03,-1411.0,213.0,201.0
15:10:03,-1507.0,212.0,202.0
15:10:03,-1507.0,212.0,202.0
15:10:03,-1507.0,212.0,202.0
15:10:03,-1507.0,212.0,202.0
15:10:03,-1460.0,213.0,202.0
15:10:03,-1460.0,213.0,202.0
15:10:03,-1460.0,213.0,202.0
15:10:03,-1460.0,213.0,202.0
15:10:03,-1554.0,212.0,203.0
15:10:03,-1554.0,212.0,203.0
15:10:03,-1554.0,212.0,203.0
15:10:03,-1554.0,212.0,203.0
15:10:03,-1570.0,213.0,201.0
15:10:03,-1570.0,213.0,201.0
15:10:03,-1570.0,213.0,201.0
15:10:03,-1570.0,213.0,201.0
15:10:03,-1743.0,212.0,203.0
15:10:03,-1743.0,212.0,203.0
15:10:03,-1743.0,212.0,203.0
15:10:03,-1743.0,212.0,203.0
15:10:03,-1706.0,213.0,203.0
15:10:03,-1706.0,213.0,203.0
15:10:03,-1706.0,213.0,203.0
15:10:03,-1706.0,213.0,203.0
15:10:03,-1753.0,213.0,203.0
15:10:03,-1753.0,213.0,203.0
15:10:03,-1753.0,213.0,203.0
15:10:03,-1753.0,213.0,203.0
15:10:03,-1489.0,214.0,203.0
15:10:03,-1489.0,214.0,203.0
15:10:03,-1489.0,214.0,203.0
15:10:03,-1489.0,214.0,203.0
15:10:03,-1638.0,213.0,202.0
15:10:03,-1638.0,213.0,202.0
15:10:03,-1638.0,213.0,202.0
15:10:03,-1638.0,213.0,202.0
15:10:03,-1651.0,214.0,203.0
15:10:03,-1651.0,214.0,203.0
15:10:03,-1651.0,214.0,203.0
15:10:03,-1651.0,214.0,203.0
15:10:03,-1690.0,213.0,201.0
15:10:03,-1690.0,213.0,201.0
15:10:03,-1690.0,213.0,201.0
15:10:03,-1690.0,213.0,201.0
15:10:03,-1514.0,213.0,204.0
15:10:03,-1514.0,213.0,204.0
15:10:03,-1514.0,213.0,204.0
15:10:03,-1514.0,213.0,204.0
15:10:03,-1485.0,212.0,203.0
15:10:03,-1485.0,212.0,203.0
15:10:03,-1485.0,212.0,203.0
15:10:03,-1485.0,212.0,203.0
15:10:03,-1626.0,214.0,202.0
15:10:03,-1626.0,214.0,202.0
15:10:03,-1626.0,214.0,202.0
15:10:03,-1626.0,214.0,202.0
15:10:03,-1578.0,213.0,202.0
15:10:03,-1578.0,213.0,202.0
15:10:03,-1578.0,213.0,202.0
15:10:03,-1578.0,213.0,202.0
15:10:03,-1637.0,214.0,203.0
15:10:03,-1637.0,214.0,203.0
15:10:03,-1637.0,214.0,203.0
15:10:03,-1637.0,214.0,203.0
15:10:03,-1505.0,215.0,203.0
15:10:03,-1505.0,215.0,203.0
15:10:03,-1505.0,215.0,203.0
15:10:03,-1505.0,215.0,203.0
15:10:03,-1521.0,214.0,204.0
15:10:03,-1521.0,214.0,204.0
15:10:03,-1521.0,214.0,204.0
15:10:03,-1521.0,214.0,204.0
15:10:03,-1452.0,213.0,202.0
15:10:03,-1452.0,213.0,202.0
15:10:03,-1452.0,213.0,202.0
15:10:03,-1452.0,213.0,202.0
15:10:03,-1530.0,213.0,201.0
15:10:03,-1530.0,213.0,201.0
15:10:03,-1530.0,213.0,201.0
15:10:03,-1530.0,213.0,201.0
15:10:03,-1556.0,213.0,201.0
15:10:03,-1556.0,213.0,201.0
15:10:03,-1556.0,213.0,201.0
15:10:03,-1556.0,213.0,201.0
15:10:03,-1432.0,212.0,203.0
15:10:03,-1432.0,212.0,203.0
15:10:03,-1432.0,212.0,203.0
15:10:03,-1432.0,212.0,203.0
15:10:03,-1368.0,213.0,202.0
15:10:03,-1368.0,213.0,202.0
15:10:03,-1368.0,213.0,202.0
15:10:03,-1368.0,213.0,202.0
15:10:03,-1481.0,212.0,202.0
15:10:03,-1481.0,212.0,202.0
15:10:03,-1481.0,212.0,202.0
15:10:03,-1481.0,212.0,202.0
15:10:03,-1483.0,214.0,202.0
15:10:03,-1483.0,214.0,202.0
15:10:03,-1483.0,214.0,202.0
15:10:03,-1483.0,214.0,202.0
15:10:03,-1531.0,213.0,204.0
15:10:03,-1531.0,213.0,204.0
15:10:03,-1531.0,213.0,204.0
15:10:03,-1531.0,213.0,204.0
15:10:03,-1550.0,213.0,203.0
15:10:03,-1550.0,213.0,203.0
15:10:03,-1550.0,213.0,203.0
15:10:03,-1550.0,213.0,203.0
15:10:03,-1488.0,214.0,202.0
15:10:03,-1488.0,214.0,202.0
15:10:03,-1488.0,214.0,202.0
15:10:03,-1488.0,214.0,202.0
15:10:03,-1587.0,215.0,203.0
15:10:03,-1587.0,215.0,203.0
15:10:03,-1587.0,215.0,203.0
15:10:03,-1587.0,215.0,203.0
15:10:03,-1285.0,213.0,202.0
15:10:03,-1285.0,213.0,202.0
15:10:03,-1285.0,213.0,202.0
15:10:03,-1285.0,213.0,202.0
15:10:03,-461.0,214.0,203.0
15:10:03,-461.0,214.0,203.0
15:10:03,-461.0,214.0,203.0
15:10:03,-461.0,214.0,203.0
15:10:03,-1653.0,213.0,203.0
15:10:03,-1653.0,213.0,203.0
15:10:03,-1653.0,213.0,203.0
15:10:03,-1653.0,213.0,203.0
15:10:03,-1527.0,213.0,203.0
15:10:03,-1527.0,213.0,203.0
15:10:03,-1527.0,213.0,203.0
15:10:03,-1527.0,213.0,203.0
15:10:03,-1538.0,212.0,202.0
15:10:03,-1538.0,212.0,202.0
15:10:03,-1538.0,212.0,202.0
15:10:03,-1538.0,212.0,202.0
15:10:03,-1603.0,214.0,201.0
15:10:03,-1603.0,214.0,201.0
15:10:03,-1603.0,214.0,201.0
15:10:03,-1603.0,214.0,201.0
15:10:03,-1500.0,213.0,202.0
15:10:03,-1500.0,213.0,202.0
15:10:03,-1500.0,213.0,202.0
15:10:04,-1500.0,213.0,202.0
15:10:04,-1498.0,213.0,202.0
15:10:04,-1498.0,213.0,202.0
15:10:04,-1498.0,213.0,202.0
15:10:04,-1498.0,213.0,202.0
15:10:04,-1477.0,214.0,202.0
15:10:04,-1477.0,214.0,202.0
15:10:04,-1477.0,214.0,202.0
15:10:04,-1477.0,214.0,202.0
15:10:04,-1438.0,212.0,203.0
15:10:04,-1438.0,212.0,203.0
15:10:04,-1438.0,212.0,203.0
15:10:04,-1438.0,212.0,203.0
15:10:04,-1439.0,213.0,202.0
15:10:04,-1439.0,213.0,202.0
15:10:04,-1439.0,213.0,202.0
15:10:04,-1439.0,213.0,202.0
15:10:04,-1392.0,213.0,202.0
15:10:04,-1392.0,213.0,202.0
15:10:04,-1392.0,213.0,202.0
15:10:04,-1392.0,213.0,202.0
15:10:04,-1364.0,213.0,203.0
15:10:04,-1364.0,213.0,203.0
15:10:04,-1364.0,213.0,203.0
15:10:04,-1364.0,213.0,203.0
15:10:04,-1260.0,215.0,203.0
15:10:04,-1260.0,215.0,203.0
15:10:04,-1260.0,215.0,203.0
15:10:04,-1260.0,215.0,203.0
15:10:04,-1271.0,215.0,201.0
15:10:04,-1271.0,215.0,201.0
15:10:04,-1271.0,215.0,201.0
15:10:04,-1271.0,215.0,201.0
15:10:04,-1285.0,214.0,203.0
15:10:04,-1285.0,214.0,203.0
15:10:04,-1285.0,214.0,203.0
15:10:04,-1285.0,214.0,203.0
15:10:04,-1400.0,214.0,204.0
15:10:04,-1400.0,214.0,204.0
15:10:04,-1400.0,214.0,204.0
15:10:04,-1400.0,214.0,204.0
15:10:04,-1406.0,213.0,203.0
15:10:04,-1406.0,213.0,203.0
15:10:04,-1406.0,213.0,203.0
15:10:04,-1406.0,213.0,203.0
15:10:04,-1510.0,213.0,203.0
15:10:04,-1510.0,213.0,203.0
15:10:04,-1510.0,213.0,203.0
15:10:04,-1510.0,213.0,203.0
15:10:04,-1479.0,213.0,203.0
15:10:04,-1479.0,213.0,203.0
15:10:04,-1479.0,213.0,203.0
15:10:04,-1479.0,213.0,203.0
15:10:04,-1457.0,213.0,203.0
15:10:04,-1457.0,213.0,203.0
15:10:04,-1457.0,213.0,203.0
15:10:04,-1457.0,213.0,203.0
15:10:04,-1454.0,211.0,204.0
15:10:04,-1454.0,211.0,204.0
15:10:04,-1454.0,211.0,204.0
15:10:04,-1454.0,211.0,204.0
15:10:04,-1449.0,213.0,202.0
15:10:04,-1449.0,213.0,202.0
15:10:04,-1449.0,213.0,202.0
15:10:04,-1449.0,213.0,202.0
15:10:04,-1446.0,212.0,203.0
15:10:04,-1446.0,212.0,203.0
15:10:04,-1446.0,212.0,203.0
15:10:04,-1446.0,212.0,203.0
15:10:04,-1378.0,212.0,202.0
15:10:04,-1378.0,212.0,202.0
15:10:04,-1378.0,212.0,202.0
15:10:04,-1378.0,212.0,202.0
15:10:04,-1395.0,215.0,201.0
15:10:04,-1395.0,215.0,201.0
15:10:04,-1395.0,215.0,201.0
15:10:04,-1395.0,215.0,201.0
15:10:04,-1427.0,213.0,202.0
15:10:04,-1427.0,213.0,202.0
15:10:04,-1427.0,213.0,202.0
15:10:04,-1427.0,213.0,202.0
15:10:04,-1379.0,214.0,203.0
15:10:04,-1379.0,214.0,203.0
15:10:04,-1379.0,214.0,203.0
15:10:04,-1379.0,214.0,203.0
15:10:04,-1437.0,213.0,202.0
15:10:04,-1437.0,213.0,202.0
15:10:04,-1437.0,213.0,202.0
15:10:04,-1437.0,213.0,202.0
15:10:04,-1461.0,213.0,203.0
15:10:04,-1461.0,213.0,203.0
15:10:04,-1461.0,213.0,203.0
15:10:04,-1461.0,213.0,203.0
15:10:04,-1418.0,213.0,203.0
15:10:04,-1418.0,213.0,203.0
15:10:04,-1418.0,213.0,203.0
15:10:04,-1418.0,213.0,203.0
15:10:04,-1376.0,214.0,203.0
15:10:04,-1376.0,214.0,203.0
15:10:04,-1376.0,214.0,203.0
15:10:04,-1376.0,214.0,203.0
15:10:04,-1402.0,213.0,204.0
15:10:04,-1402.0,213.0,204.0
15:10:04,-1402.0,213.0,204.0
15:10:04,-1402.0,213.0,204.0
15:10:04,-1422.0,213.0,202.0
15:10:04,-1422.0,213.0,202.0
15:10:04,-1422.0,213.0,202.0
15:10:04,-1422.0,213.0,202.0
15:10:04,-1344.0,213.0,202.0
15:10:04,-1344.0,213.0,202.0
15:10:04,-1344.0,213.0,202.0
15:10:04,-1344.0,213.0,202.0
15:10:04,-1311.0,214.0,203.0
15:10:04,-1311.0,214.0,203.0
15:10:04,-1311.0,214.0,203.0
15:10:04,-1311.0,214.0,203.0
15:10:04,-1281.0,214.0,203.0
15:10:04,-1281.0,214.0,203.0
15:10:04,-1281.0,214.0,203.0
15:10:04,-1281.0,214.0,203.0
15:10:04,-1348.0,212.0,203.0
15:10:04,-1348.0,212.0,203.0
15:10:04,-1348.0,212.0,203.0
15:10:04,-1348.0,212.0,203.0
15:10:04,-1408.0,214.0,203.0
15:10:04,-1408.0,214.0,203.0
15:10:04,-1408.0,214.0,203.0
15:10:04,-1408.0,214.0,203.0
15:10:04,-1444.0,212.0,204.0
15:10:04,-1444.0,212.0,204.0
15:10:04,-1444.0,212.0,204.0
15:10:04,-1444.0,212.0,204.0
15:10:04,-1419.0,214.0,204.0
15:10:04,-1419.0,214.0,204.0
15:10:04,-1419.0,214.0,204.0
15:10:04,-1419.0,214.0,204.0
15:10:04,-1445.0,212.0,205.0
15:10:04,-1445.0,212.0,205.0
15:10:04,-1445.0,212.0,205.0
15:10:04,-1445.0,212.0,205.0
15:10:04,-1422.0,213.0,203.0
15:10:04,-1422.0,213.0,203.0
15:10:04,-1422.0,213.0,203.0
15:10:04,-1422.0,213.0,203.0
15:10:04,-716.0,213.0,201.0
15:10:04,-716.0,213.0,201.0
15:10:04,-716.0,213.0,201.0
15:10:04,-716.0,213.0,201.0
15:10:04,-1392.0,214.0,203.0
15:10:04,-1392.0,214.0,203.0
15:10:04,-1392.0,214.0,203.0
15:10:04,-1392.0,214.0,203.0
15:10:04,-1535.0,213.0,203.0
15:10:04,-1535.0,213.0,203.0
15:10:04,-1535.0,213.0,203.0
15:10:04,-1535.0,213.0,203.0
15:10:04,-1520.0,212.0,202.0
15:10:04,-1520.0,212.0,202.0
15:10:04,-1520.0,212.0,202.0
15:10:04,-1520.0,212.0,202.0
15:10:04,-1477.0,213.0,202.0
15:10:04,-1477.0,213.0,202.0
15:10:04,-1477.0,213.0,202.0
15:10:04,-1477.0,213.0,202.0
15:10:04,-1439.0,212.0,202.0
15:10:04,-1439.0,212.0,202.0
15:10:04,-1439.0,212.0,202.0
15:10:04,-1439.0,212.0,202.0
15:10:04,-1467.0,213.0,201.0
15:10:04,-1467.0,213.0,201.0
15:10:04,-1467.0,213.0,201.0
15:10:04,-1467.0,213.0,201.0
15:10:04,-1424.0,213.0,202.0
15:10:04,-1424.0,213.0,202.0
15:10:04,-1424.0,213.0,202.0
15:10:04,-1424.0,213.0,202.0
15:10:04,-1418.0,214.0,202.0
15:10:04,-1418.0,214.0,202.0
15:10:04,-1418.0,214.0,202.0
15:10:04,-1418.0,214.0,202.0
15:10:04,-1390.0,212.0,203.0
15:10:04,-1390.0,212.0,203.0
15:10:04,-1390.0,212.0,203.0
15:10:04,-1390.0,212.0,203.0
15:10:04,-1390.0,214.0,203.0
15:10:04,-1390.0,214.0,203.0
15:10:04,-1390.0,214.0,203.0
15:10:04,-1390.0,214.0,203.0
15:10:04,-1323.0,214.0,202.0
15:10:04,-1323.0,214.0,202.0
15:10:04,-1323.0,214.0,202.0
15:10:04,-1323.0,214.0,202.0
15:10:04,-1302.0,213.0,204.0
15:10:04,-1302.0,213.0,204.0
15:10:04,-1302.0,213.0,204.0
15:10:04,-1302.0,213.0,204.0
15:10:04,-1278.0,213.0,204.0
15:10:04,-1278.0,213.0,204.0
15:10:04,-1278.0,213.0,204.0
15:10:05,-1278.0,213.0,204.0
15:10:05,-1272.0,213.0,203.0
15:10:05,-1272.0,213.0,203.0
15:10:05,-1272.0,213.0,203.0
15:10:05,-1272.0,213.0,203.0
15:10:05,-1318.0,214.0,202.0
15:10:05,-1318.0,214.0,202.0
15:10:05,-1318.0,214.0,202.0
15:10:05,-1318.0,214.0,202.0
15:10:05,-1415.0,213.0,203.0
15:10:05,-1415.0,213.0,203.0
15:10:05,-1415.0,213.0,203.0
15:10:05,-1415.0,213.0,203.0
15:10:05,-1423.0,213.0,203.0
15:10:05,-1423.0,213.0,203.0
15:10:05,-1423.0,213.0,203.0
15:10:05,-1423.0,213.0,203.0
15:10:05,-1431.0,213.0,204.0
15:10:05,-1431.0,213.0,204.0
15:10:05,-1431.0,213.0,204.0
15:10:05,-1431.0,213.0,204.0
15:10:05,-1440.0,214.0,202.0
15:10:05,-1440.0,214.0,202.0
15:10:05,-1440.0,214.0,202.0
15:10:05,-1440.0,214.0,202.0
15:10:05,-1448.0,213.0,202.0
15:10:05,-1448.0,213.0,202.0
15:10:05,-1448.0,213.0,202.0
15:10:05,-1448.0,213.0,202.0
15:10:05,-1444.0,213.0,203.0
15:10:05,-1444.0,213.0,203.0
15:10:05,-1444.0,213.0,203.0
15:10:05,-1444.0,213.0,203.0
15:10:05,-1432.0,212.0,203.0
15:10:05,-1432.0,212.0,203.0
15:10:05,-1432.0,212.0,203.0
15:10:05,-1432.0,212.0,203.0
15:10:05,-1419.0,214.0,203.0
15:10:05,-1419.0,214.0,203.0
15:10:05,-1419.0,214.0,203.0
15:10:05,-1419.0,214.0,203.0
15:10:05,-1451.0,214.0,203.0
15:10:05,-1451.0,214.0,203.0
15:10:05,-1451.0,214.0,203.0
15:10:05,-1451.0,214.0,203.0
15:10:05,-1392.0,213.0,203.0
15:10:05,-1392.0,213.0,203.0
15:10:05,-1392.0,213.0,203.0
15:10:05,-1392.0,213.0,203.0
15:10:05,-1402.0,212.0,203.0
15:10:05,-1402.0,212.0,203.0
15:10:05,-1402.0,212.0,203.0
15:10:05,-1402.0,212.0,203.0
15:10:05,-1424.0,212.0,203.0
15:10:05,-1424.0,212.0,203.0
15:10:05,-1424.0,212.0,203.0
15:10:05,-1424.0,212.0,203.0
15:10:05,-1422.0,214.0,203.0
15:10:05,-1422.0,214.0,203.0
15:10:05,-1422.0,214.0,203.0
15:10:05,-1422.0,214.0,203.0
15:10:05,-1412.0,214.0,202.0
15:10:05,-1412.0,214.0,202.0
15:10:05,-1412.0,214.0,202.0
15:10:05,-1412.0,214.0,202.0
15:10:05,-1437.0,214.0,201.0
15:10:05,-1437.0,214.0,201.0
15:10:05,-1437.0,214.0,201.0
15:10:05,-1437.0,214.0,201.0
15:10:05,-1401.0,213.0,202.0
15:10:05,-1401.0,213.0,202.0
15:10:05,-1401.0,213.0,202.0
15:10:05,-1401.0,213.0,202.0
15:10:05,-1394.0,212.0,203.0
15:10:05,-1394.0,212.0,203.0
15:10:05,-1394.0,212.0,203.0
15:10:05,-1394.0,212.0,203.0
15:10:05,-1414.0,214.0,203.0
15:10:05,-1414.0,214.0,203.0
15:10:05,-1414.0,214.0,203.0
15:10:05,-1414.0,214.0,203.0
15:10:05,-1336.0,215.0,203.0
15:10:05,-1336.0,215.0,203.0
15:10:05,-1336.0,215.0,203.0
15:10:05,-1336.0,215.0,203.0
15:10:05,-1328.0,213.0,204.0
15:10:05,-1328.0,213.0,204.0
15:10:05,-1328.0,213.0,204.0
15:10:05,-1328.0,213.0,204.0
15:10:05,-1287.0,213.0,203.0
15:10:05,-1287.0,213.0,203.0
15:10:05,-1287.0,213.0,203.0
15:10:05,-1287.0,213.0,203.0
15:10:05,-1363.0,213.0,203.0
15:10:05,-1363.0,213.0,203.0
15:10:05,-1363.0,213.0,203.0
15:10:05,-1363.0,213.0,203.0
15:10:05,-1381.0,213.0,203.0
15:10:05,-1381.0,213.0,203.0
15:10:05,-1381.0,213.0,203.0
15:10:05,-1381.0,213.0,203.0
15:10:05,-1456.0,213.0,202.0
15:10:05,-1456.0,213.0,202.0
15:10:05,-1456.0,213.0,202.0
15:10:05,-1456.0,213.0,202.0
15:10:05,-1425.0,213.0,203.0
15:10:05,-1425.0,213.0,203.0
15:10:05,-1425.0,213.0,203.0
15:10:05,-1425.0,213.0,203.0
15:10:05,-1409.0,212.0,204.0
15:10:05,-1409.0,212.0,204.0
15:10:05,-1409.0,212.0,204.0
15:10:05,-1409.0,212.0,204.0
15:10:05,-1408.0,213.0,202.0
15:10:05,-1408.0,213.0,202.0
15:10:05,-1408.0,213.0,202.0
15:10:05,-1408.0,213.0,202.0
15:10:05,-725.0,213.0,202.0
15:10:05,-725.0,213.0,202.0
15:10:05,-725.0,213.0,202.0
15:10:05,-725.0,213.0,202.0
15:10:05,-1363.0,213.0,202.0
15:10:05,-1363.0,213.0,202.0
15:10:05,-1363.0,213.0,202.0
15:10:05,-1363.0,213.0,202.0
15:10:05,-1517.0,213.0,201.0
15:10:05,-1517.0,213.0,201.0
15:10:05,-1517.0,213.0,201.0
15:10:05,-1517.0,213.0,201.0
15:10:05,-1491.0,213.0,202.0
15:10:05,-1491.0,213.0,202.0
15:10:05,-1491.0,213.0,202.0
15:10:05,-1491.0,213.0,202.0
15:10:05,-1449.0,213.0,201.0
15:10:05,-1449.0,213.0,201.0
15:10:05,-1449.0,213.0,201.0
15:10:05,-1449.0,213.0,201.0
15:10:05,-1452.0,212.0,202.0
15:10:05,-1452.0,212.0,202.0
15:10:05,-1452.0,212.0,202.0
15:10:05,-1452.0,212.0,202.0
15:10:05,-1426.0,213.0,202.0
15:10:05,-1426.0,213.0,202.0
15:10:05,-1426.0,213.0,202.0
15:10:05,-1426.0,213.0,202.0
15:10:05,-1371.0,213.0,202.0
15:10:05,-1371.0,213.0,202.0
15:10:05,-1371.0,213.0,202.0
15:10:05,-1371.0,213.0,202.0
15:10:05,-1386.0,214.0,202.0
15:10:05,-1386.0,214.0,202.0
15:10:05,-1386.0,214.0,202.0
15:10:05,-1386.0,214.0,202.0
15:10:05,-1354.0,211.0,202.0
15:10:05,-1354.0,211.0,202.0
15:10:05,-1354.0,211.0,202.0
15:10:05,-1354.0,211.0,202.0
15:10:05,-1352.0,213.0,202.0
15:10:05,-1352.0,213.0,202.0
15:10:05,-1352.0,213.0,202.0
15:10:05,-1352.0,213.0,202.0
15:10:05,-1258.0,212.0,202.0
15:10:05,-1258.0,212.0,202.0
15:10:05,-1258.0,212.0,202.0
15:10:05,-1258.0,212.0,202.0
15:10:05,-1248.0,213.0,202.0
15:10:05,-1248.0,213.0,202.0
15:10:05,-1248.0,213.0,202.0
15:10:05,-1248.0,213.0,202.0
15:10:05,-1234.0,212.0,202.0
15:10:05,-1234.0,212.0,202.0
15:10:05,-1234.0,212.0,202.0
15:10:05,-1234.0,212.0,202.0
15:10:05,-1218.0,215.0,203.0
15:10:05,-1218.0,215.0,203.0
15:10:05,-1218.0,215.0,203.0
15:10:05,-1218.0,215.0,203.0
15:10:05,-1209.0,214.0,203.0
15:10:05,-1209.0,214.0,203.0
15:10:05,-1209.0,214.0,203.0
15:10:05,-1209.0,214.0,203.0
15:10:05,-1310.0,215.0,204.0
15:10:05,-1310.0,215.0,204.0
15:10:05,-1310.0,215.0,204.0
15:10:05,-1310.0,215.0,204.0
15:10:05,-1346.0,213.0,203.0
15:10:05,-1346.0,213.0,203.0
15:10:05,-1346.0,213.0,203.0
15:10:05,-1346.0,213.0,203.0
15:10:05,-1372.0,213.0,203.0
15:10:05,-1372.0,213.0,203.0
15:10:05,-1372.0,213.0,203.0
15:10:05,-1372.0,213.0,203.0
15:10:05,-1382.0,213.0,203.0
15:10:05,-1382.0,213.0,203.0
15:10:05,-1382.0,213.0,203.0
15:10:05,-1382.0,213.0,203.0
15:10:05,-1351.0,213.0,202.0
15:10:05,-1351.0,213.0,202.0
15:10:05,-1351.0,213.0,202.0
15:10:05,-1351.0,213.0,202.0
15:10:06,-1344.0,213.0,201.0
15:10:06,-1344.0,213.0,201.0
15:10:06,-1344.0,213.0,201.0
15:10:06,-1344.0,213.0,201.0
15:10:06,-1335.0,213.0,202.0
15:10:06,-1335.0,213.0,202.0
15:10:06,-1335.0,213.0,202.0
15:10:06,-1335.0,213.0,202.0
15:10:06,-1353.0,213.0,203.0
15:10:06,-1353.0,213.0,203.0
15:10:06,-1353.0,213.0,203.0
15:10:06,-1353.0,213.0,203.0
15:10:06,-1324.0,213.0,202.0
15:10:06,-1324.0,213.0,202.0
15:10:06,-1324.0,213.0,202.0
15:10:06,-1324.0,213.0,202.0
15:10:06,-1327.0,213.0,202.0
15:10:06,-1327.0,213.0,202.0
15:10:06,-1327.0,213.0,202.0
15:10:06,-1327.0,213.0,202.0
15:10:06,-1288.0,213.0,202.0
15:10:06,-1288.0,213.0,202.0
15:10:06,-1288.0,213.0,202.0
15:10:06,-1288.0,213.0,202.0
15:10:06,-1312.0,213.0,202.0
15:10:06,-1312.0,213.0,202.0
15:10:06,-1312.0,213.0,202.0
15:10:06,-1312.0,213.0,202.0
15:10:06,-1281.0,214.0,203.0
15:10:06,-1281.0,214.0,203.0
15:10:06,-1281.0,214.0,203.0
15:10:06,-1281.0,214.0,203.0
15:10:06,-1280.0,213.0,202.0
15:10:06,-1280.0,213.0,202.0
15:10:06,-1280.0,213.0,202.0
15:10:06,-1280.0,213.0,202.0
15:10:06,-1280.0,214.0,204.0
15:10:06,-1280.0,214.0,204.0
15:10:06,-1280.0,214.0,204.0
15:10:06,-1280.0,214.0,204.0
15:10:06,-1274.0,215.0,203.0
15:10:06,-1274.0,215.0,203.0
15:10:06,-1274.0,215.0,203.0
15:10:06,-1274.0,215.0,203.0
15:10:06,-1284.0,214.0,202.0
15:10:06,-1284.0,214.0,202.0
15:10:06,-1284.0,214.0,202.0
15:10:06,-1284.0,214.0,202.0
15:10:06,-1295.0,214.0,202.0
15:10:06,-1295.0,214.0,202.0
15:10:06,-1295.0,214.0,202.0
15:10:06,-1295.0,214.0,202.0
15:10:06,-1230.0,212.0,203.0
15:10:06,-1230.0,212.0,203.0
15:10:06,-1230.0,212.0,203.0
15:10:06,-1230.0,212.0,203.0
15:10:06,-1197.0,212.0,203.0
15:10:06,-1197.0,212.0,203.0
15:10:06,-1197.0,212.0,203.0
15:10:06,-1197.0,212.0,203.0
15:10:06,-1123.0,213.0,202.0
15:10:06,-1123.0,213.0,202.0
15:10:06,-1123.0,213.0,202.0
15:10:06,-1123.0,213.0,202.0
15:10:06,-1155.0,213.0,203.0
15:10:06,-1155.0,213.0,203.0
15:10:06,-1155.0,213.0,203.0
15:10:06,-1155.0,213.0,203.0
15:10:06,-1196.0,213.0,203.0
15:10:06,-1196.0,213.0,203.0
15:10:06,-1196.0,213.0,203.0
15:10:06,-1196.0,213.0,203.0
15:10:06,-1268.0,214.0,203.0
15:10:06,-1268.0,214.0,203.0
15:10:06,-1268.0,214.0,203.0
15:10:06,-1268.0,214.0,203.0
15:10:06,-1255.0,214.0,203.0
15:10:06,-1255.0,214.0,203.0
15:10:06,-1255.0,214.0,203.0
15:10:06,-1255.0,214.0,203.0
15:10:06,-1270.0,213.0,203.0
15:10:06,-1270.0,213.0,203.0
15:10:06,-1270.0,213.0,203.0
15:10:06,-1270.0,213.0,203.0
15:10:06,-1252.0,214.0,202.0
15:10:06,-1252.0,214.0,202.0
15:10:06,-1252.0,214.0,202.0
15:10:06,-1252.0,214.0,202.0
15:10:06,-1229.0,213.0,203.0
15:10:06,-1229.0,213.0,203.0
15:10:06,-1229.0,213.0,203.0
15:10:06,-1229.0,213.0,203.0
15:10:06,-350.0,212.0,204.0
15:10:06,-350.0,212.0,204.0
15:10:06,-350.0,212.0,204.0
15:10:06,-350.0,212.0,204.0
15:10:06,-1406.0,213.0,203.0
15:10:06,-1406.0,213.0,203.0
15:10:06,-1406.0,213.0,203.0
15:10:06,-1406.0,213.0,203.0
15:10:06,-1318.0,213.0,203.0
15:10:06,-1318.0,213.0,203.0
15:10:06,-1318.0,213.0,203.0
15:10:06,-1318.0,213.0,203.0
15:10:06,-1308.0,213.0,202.0
15:10:06,-1308.0,213.0,202.0
15:10:06,-1308.0,213.0,202.0
15:10:06,-1308.0,213.0,202.0
15:10:06,-1294.0,212.0,202.0
15:10:06,-1294.0,212.0,202.0
15:10:06,-1294.0,212.0,202.0
15:10:06,-1294.0,212.0,202.0
15:10:06,-1237.0,213.0,201.0
15:10:06,-1237.0,213.0,201.0
15:10:06,-1237.0,213.0,201.0
15:10:06,-1237.0,213.0,201.0
15:10:06,-1265.0,213.0,204.0
15:10:06,-1265.0,213.0,204.0
15:10:06,-1265.0,213.0,204.0
15:10:06,-1265.0,213.0,204.0
15:10:06,-1168.0,212.0,203.0
15:10:06,-1168.0,212.0,203.0
15:10:06,-1168.0,212.0,203.0
15:10:06,-1168.0,212.0,203.0
15:10:06,-1188.0,212.0,203.0
15:10:06,-1188.0,212.0,203.0
15:10:06,-1188.0,212.0,203.0
15:10:06,-1188.0,212.0,203.0
15:10:06,-1165.0,215.0,203.0
15:10:06,-1165.0,215.0,203.0
15:10:06,-1165.0,215.0,203.0
15:10:06,-1165.0,215.0,203.0
15:10:06,-1152.0,213.0,203.0
15:10:06,-1152.0,213.0,203.0
15:10:06,-1152.0,213.0,203.0
15:10:06,-1152.0,213.0,203.0
15:10:06,-1108.0,214.0,201.0
15:10:06,-1108.0,214.0,201.0
15:10:06,-1108.0,214.0,201.0
15:10:06,-1108.0,214.0,201.0
15:10:06,-1059.0,213.0,203.0
15:10:06,-1059.0,213.0,203.0
15:10:06,-1059.0,213.0,203.0
15:10:06,-1059.0,213.0,203.0
15:10:06,-1029.0,213.0,203.0
15:10:06,-1029.0,213.0,203.0
15:10:06,-1029.0,213.0,203.0
15:10:06,-1029.0,213.0,203.0
15:10:06,-1012.0,212.0,203.0
15:10:06,-1012.0,212.0,203.0
15:10:06,-1012.0,212.0,203.0
15:10:06,-1012.0,212.0,203.0
15:10:06,-1055.0,213.0,201.0
15:10:06,-1055.0,213.0,201.0
15:10:06,-1055.0,213.0,201.0
15:10:06,-1055.0,213.0,201.0
15:10:06,-1148.0,212.0,203.0
15:10:06,-1148.0,212.0,203.0
15:10:06,-1148.0,212.0,203.0
15:10:06,-1148.0,212.0,203.0
15:10:06,-1157.0,214.0,201.0
15:10:06,-1157.0,214.0,201.0
15:10:06,-1157.0,214.0,201.0
15:10:06,-1157.0,214.0,201.0
15:10:06,-1205.0,212.0,204.0
15:10:06,-1205.0,212.0,204.0
15:10:06,-1205.0,212.0,204.0
15:10:06,-1205.0,212.0,204.0
15:10:06,-1171.0,213.0,203.0
15:10:06,-1171.0,213.0,203.0
15:10:06,-1171.0,213.0,203.0
15:10:06,-1171.0,213.0,203.0
15:10:06,-1184.0,214.0,202.0
15:10:06,-1184.0,214.0,202.0
15:10:06,-1184.0,214.0,202.0
15:10:06,-1184.0,214.0,202.0
15:10:06,-1184.0,212.0,203.0
15:10:06,-1184.0,212.0,203.0
15:10:06,-1184.0,212.0,203.0
15:10:06,-1184.0,212.0,203.0
15:10:06,-1172.0,213.0,203.0
15:10:06,-1172.0,213.0,203.0
15:10:06,-1172.0,213.0,203.0
15:10:06,-1172.0,213.0,203.0
15:10:06,-1145.0,214.0,203.0
15:10:06,-1145.0,214.0,203.0
15:10:06,-1145.0,214.0,203.0
15:10:06,-1145.0,214.0,203.0
15:10:06,-1158.0,213.0,201.0
15:10:06,-1158.0,213.0,201.0
15:10:06,-1158.0,213.0,201.0
15:10:06,-1158.0,213.0,201.0
15:10:06,-1132.0,214.0,204.0
15:10:06,-1132.0,214.0,204.0
15:10:06,-1132.0,214.0,204.0
15:10:06,-1132.0,214.0,204.0
15:10:06,-1127.0,213.0,202.0
15:10:06,-1127.0,213.0,202.0
15:10:06,-1127.0,213.0,202.0
15:10:06,-1127.0,213.0,202.0
15:10:06,-1125.0,213.0,201.0
15:10:07,-1125.0,213.0,201.0
15:10:07,-1125.0,213.0,201.0
15:10:07,-1125.0,213.0,201.0
15:10:07,-1134.0,213.0,201.0
15:10:07,-1134.0,213.0,201.0
15:10:07,-1134.0,213.0,201.0
15:10:07,-1134.0,213.0,201.0
15:10:07,-1089.0,214.0,201.0
15:10:07,-1089.0,214.0,201.0
15:10:07,-1089.0,214.0,201.0
15:10:07,-1089.0,214.0,201.0
15:10:07,-1123.0,213.0,202.0
15:10:07,-1123.0,213.0,202.0
15:10:07,-1123.0,213.0,202.0
15:10:07,-1123.0,213.0,202.0
15:10:07,-1112.0,212.0,203.0
15:10:07,-1112.0,212.0,203.0
15:10:07,-1112.0,212.0,203.0
15:10:07,-1112.0,212.0,203.0
15:10:07,-1111.0,213.0,203.0
15:10:07,-1111.0,213.0,203.0
15:10:07,-1111.0,213.0,203.0
15:10:07,-1111.0,213.0,203.0
15:10:07,-1116.0,215.0,202.0
15:10:07,-1116.0,215.0,202.0
15:10:07,-1116.0,215.0,202.0
15:10:07,-1116.0,215.0,202.0
15:10:07,-1110.0,212.0,203.0
15:10:07,-1110.0,212.0,203.0
15:10:07,-1110.0,212.0,203.0
15:10:07,-1110.0,212.0,203.0
15:10:07,-1068.0,213.0,202.0
15:10:07,-1068.0,213.0,202.0
15:10:07,-1068.0,213.0,202.0
15:10:07,-1068.0,213.0,202.0
15:10:07,-1033.0,214.0,202.0
15:10:07,-1033.0,214.0,202.0
15:10:07,-1033.0,214.0,202.0
15:10:07,-1033.0,214.0,202.0
15:10:07,-988.0,214.0,202.0
15:10:07,-988.0,214.0,202.0
15:10:07,-988.0,214.0,202.0
15:10:07,-988.0,214.0,202.0
15:10:07,-1015.0,214.0,203.0
15:10:07,-1015.0,214.0,203.0
15:10:07,-1015.0,214.0,203.0
15:10:07,-1015.0,214.0,203.0
15:10:07,-1078.0,213.0,202.0
15:10:07,-1078.0,213.0,202.0
15:10:07,-1078.0,213.0,202.0
15:10:07,-1078.0,213.0,202.0
15:10:07,-1115.0,213.0,201.0
15:10:07,-1115.0,213.0,201.0
15:10:07,-1115.0,213.0,201.0
15:10:07,-1115.0,213.0,201.0
15:10:07,-1106.0,214.0,202.0
15:10:07,-1106.0,214.0,202.0
15:10:07,-1106.0,214.0,202.0
15:10:07,-1106.0,214.0,202.0
15:10:07,-1119.0,213.0,202.0
15:10:07,-1119.0,213.0,202.0
15:10:07,-1119.0,213.0,202.0
15:10:07,-1119.0,213.0,202.0
15:10:07,-1125.0,212.0,203.0
15:10:07,-1125.0,212.0,203.0
15:10:07,-1125.0,212.0,203.0
15:10:07,-1125.0,212.0,203.0
15:10:07,-1087.0,212.0,202.0
15:10:07,-1087.0,212.0,202.0
15:10:07,-1087.0,212.0,202.0
15:10:07,-1087.0,212.0,202.0
15:10:07,-134.0,212.0,201.0
15:10:07,-134.0,212.0,201.0
15:10:07,-134.0,212.0,201.0
15:10:07,-134.0,212.0,201.0
15:10:07,-1319.0,212.0,201.0
15:10:07,-1319.0,212.0,201.0
15:10:07,-1319.0,212.0,201.0
15:10:07,-1319.0,212.0,201.0
15:10:07,-1186.0,213.0,203.0
15:10:07,-1186.0,213.0,203.0
15:10:07,-1186.0,213.0,203.0
15:10:07,-1186.0,213.0,203.0
15:10:07,-1122.0,214.0,202.0
15:10:07,-1122.0,214.0,202.0
15:10:07,-1122.0,214.0,202.0
15:10:07,-1122.0,214.0,202.0
15:10:07,-1139.0,214.0,203.0
15:10:07,-1139.0,214.0,203.0
15:10:07,-1139.0,214.0,203.0
15:10:07,-1139.0,214.0,203.0
15:10:07,-1112.0,214.0,203.0
15:10:07,-1112.0,214.0,203.0
15:10:07,-1112.0,214.0,203.0
15:10:07,-1112.0,214.0,203.0
15:10:07,-1113.0,214.0,202.0
15:10:07,-1113.0,214.0,202.0
15:10:07,-1113.0,214.0,202.0
15:10:07,-1113.0,214.0,202.0
15:10:07,-1083.0,213.0,203.0
15:10:07,-1083.0,213.0,203.0
15:10:07,-1083.0,213.0,203.0
15:10:07,-1083.0,213.0,203.0
15:10:07,-1098.0,213.0,202.0
15:10:07,-1098.0,213.0,202.0
15:10:07,-1098.0,213.0,202.0
15:10:07,-1098.0,213.0,202.0
15:10:07,-1131.0,212.0,203.0
15:10:07,-1131.0,212.0,203.0
15:10:07,-1131.0,212.0,203.0
15:10:07,-1131.0,212.0,203.0
15:10:07,-1081.0,214.0,204.0
15:10:07,-1081.0,214.0,204.0
15:10:07,-1081.0,214.0,204.0
15:10:07,-1081.0,214.0,204.0
15:10:07,-1028.0,214.0,202.0
15:10:07,-1028.0,214.0,202.0
15:10:07,-1028.0,214.0,202.0
15:10:07,-1028.0,214.0,202.0
15:10:07,-998.0,214.0,202.0
15:10:07,-998.0,214.0,202.0
15:10:07,-998.0,214.0,202.0
15:10:07,-998.0,214.0,202.0
15:10:07,-975.0,214.0,203.0
15:10:07,-975.0,214.0,203.0
15:10:07,-975.0,214.0,203.0
15:10:07,-975.0,214.0,203.0
15:10:07,-976.0,215.0,202.0
15:10:07,-976.0,215.0,202.0
15:10:07,-976.0,215.0,202.0
15:10:07,-976.0,215.0,202.0
15:10:07,-1044.0,213.0,203.0
15:10:07,-1044.0,213.0,203.0
15:10:07,-1044.0,213.0,203.0
15:10:07,-1044.0,213.0,203.0
15:10:07,-1078.0,214.0,203.0
15:10:07,-1078.0,214.0,203.0
15:10:07,-1078.0,214.0,203.0
15:10:07,-1078.0,214.0,203.0
15:10:07,-1112.0,213.0,202.0
15:10:07,-1112.0,213.0,202.0
15:10:07,-1112.0,213.0,202.0
15:10:07,-1112.0,213.0,202.0
15:10:07,-1128.0,213.0,202.0
15:10:07,-1128.0,213.0,202.0
15:10:07,-1128.0,213.0,202.0
15:10:07,-1128.0,213.0,202.0
15:10:07,-1143.0,214.0,203.0
15:10:07,-1143.0,214.0,203.0
15:10:07,-1143.0,214.0,203.0
15:10:07,-1143.0,214.0,203.0
15:10:07,-1140.0,213.0,202.0
15:10:07,-1140.0,213.0,202.0
15:10:07,-1140.0,213.0,202.0
15:10:07,-1140.0,213.0,202.0
15:10:07,-1148.0,214.0,202.0
15:10:07,-1148.0,214.0,202.0
15:10:07,-1148.0,214.0,202.0
15:10:07,-1148.0,214.0,202.0
15:10:07,-1129.0,213.0,203.0
15:10:07,-1129.0,213.0,203.0
15:10:07,-1129.0,213.0,203.0
15:10:07,-1129.0,213.0,203.0
15:10:07,-1132.0,214.0,203.0
15:10:07,-1132.0,214.0,203.0
15:10:07,-1132.0,214.0,203.0
15:10:07,-1132.0,214.0,203.0
15:10:07,-1134.0,213.0,203.0
15:10:07,-1134.0,213.0,203.0
15:10:07,-1134.0,213.0,203.0
15:10:07,-1134.0,213.0,203.0
15:10:07,-1099.0,213.0,203.0
15:10:07,-1099.0,213.0,203.0
15:10:07,-1099.0,213.0,203.0
15:10:07,-1099.0,213.0,203.0
15:10:07,-1120.0,214.0,202.0
15:10:07,-1120.0,214.0,202.0
15:10:07,-1120.0,214.0,202.0
15:10:07,-1120.0,214.0,202.0
15:10:07,-1172.0,214.0,202.0
15:10:07,-1172.0,214.0,202.0
15:10:07,-1172.0,214.0,202.0
15:10:07,-1172.0,214.0,202.0
15:10:07,-1150.0,214.0,203.0
15:10:07,-1150.0,214.0,203.0
15:10:07,-1150.0,214.0,203.0
15:10:07,-1150.0,214.0,203.0
15:10:07,-1168.0,212.0,203.0
15:10:07,-1168.0,212.0,203.0
15:10:07,-1168.0,212.0,203.0
15:10:07,-1168.0,212.0,203.0
15:10:07,-1175.0,214.0,201.0
