Wed Apr 16 16:22:11 IST 2025
TimeStamp,ECG,PPG
16:22:11,-641.0,377.0,332.0
16:22:11,-641.0,377.0,332.0
16:22:11,-640.0,380.0,332.0
16:22:11,-640.0,380.0,332.0
16:22:11,-640.0,380.0,332.0
16:22:11,-640.0,380.0,332.0
16:22:11,-640.0,379.0,332.0
16:22:11,-640.0,379.0,332.0
16:22:11,-640.0,379.0,332.0
16:22:11,-640.0,379.0,332.0
16:22:11,-623.0,377.0,334.0
16:22:11,-623.0,377.0,334.0
16:22:11,-623.0,377.0,334.0
16:22:11,-623.0,377.0,334.0
16:22:11,-618.0,378.0,332.0
16:22:11,-618.0,378.0,332.0
16:22:11,-618.0,378.0,332.0
16:22:11,-618.0,378.0,332.0
16:22:11,-639.0,377.0,333.0
16:22:11,-639.0,377.0,333.0
16:22:11,-639.0,377.0,333.0
16:22:11,-639.0,377.0,333.0
16:22:11,-632.0,379.0,331.0
16:22:11,-632.0,379.0,331.0
16:22:11,-632.0,379.0,331.0
16:22:11,-632.0,379.0,331.0
16:22:11,-619.0,379.0,331.0
16:22:11,-619.0,379.0,331.0
16:22:11,-619.0,379.0,331.0
16:22:11,-619.0,379.0,331.0
16:22:11,-647.0,378.0,331.0
16:22:11,-647.0,378.0,331.0
16:22:11,-647.0,378.0,331.0
16:22:11,-647.0,378.0,331.0
16:22:11,-617.0,378.0,332.0
16:22:11,-617.0,378.0,332.0
16:22:11,-617.0,378.0,332.0
16:22:11,-617.0,378.0,332.0
16:22:11,-636.0,378.0,333.0
16:22:11,-636.0,378.0,333.0
16:22:11,-636.0,378.0,333.0
16:22:11,-636.0,378.0,333.0
16:22:11,-601.0,378.0,333.0
16:22:11,-601.0,378.0,333.0
16:22:11,-601.0,378.0,333.0
16:22:11,-601.0,378.0,333.0
16:22:11,-608.0,379.0,333.0
16:22:11,-608.0,379.0,333.0
16:22:11,-608.0,379.0,333.0
16:22:11,-608.0,379.0,333.0
16:22:11,-608.0,377.0,332.0
16:22:11,-608.0,377.0,332.0
16:22:11,-608.0,377.0,332.0
16:22:11,-608.0,377.0,332.0
16:22:11,-609.0,378.0,331.0
16:22:11,-609.0,378.0,331.0
16:22:11,-609.0,378.0,331.0
16:22:11,-609.0,378.0,331.0
16:22:12,-595.0,377.0,331.0
16:22:12,-595.0,377.0,331.0
16:22:12,-595.0,377.0,331.0
16:22:12,-595.0,377.0,331.0
16:22:12,-593.0,376.0,332.0
16:22:12,-593.0,376.0,332.0
16:22:12,-593.0,376.0,332.0
16:22:12,-593.0,376.0,332.0
16:22:12,-542.0,377.0,331.0
16:22:12,-542.0,377.0,331.0
16:22:12,-542.0,377.0,331.0
16:22:12,-542.0,377.0,331.0
16:22:12,-473.0,378.0,331.0
16:22:12,-473.0,378.0,331.0
16:22:12,-473.0,378.0,331.0
16:22:12,-473.0,378.0,331.0
16:22:12,-577.0,379.0,334.0
16:22:12,-577.0,379.0,334.0
16:22:12,-577.0,379.0,334.0
16:22:12,-577.0,379.0,334.0
16:22:12,-603.0,377.0,333.0
16:22:12,-603.0,377.0,333.0
16:22:12,-603.0,377.0,333.0
16:22:12,-603.0,377.0,333.0
16:22:12,-590.0,378.0,333.0
16:22:12,-590.0,378.0,333.0
16:22:12,-590.0,378.0,333.0
16:22:12,-590.0,378.0,333.0
16:22:12,-641.0,378.0,333.0
16:22:12,-641.0,378.0,333.0
16:22:12,-641.0,378.0,333.0
16:22:12,-641.0,378.0,333.0
16:22:12,75.0,378.0,333.0
16:22:12,75.0,378.0,333.0
16:22:12,75.0,378.0,333.0
16:22:12,75.0,378.0,333.0
16:22:12,-111.0,378.0,332.0
16:22:12,-111.0,378.0,332.0
16:22:12,-111.0,378.0,332.0
16:22:12,-111.0,378.0,332.0
16:22:12,-685.0,379.0,333.0
16:22:12,-685.0,379.0,333.0
16:22:12,-685.0,379.0,333.0
16:22:12,-685.0,379.0,333.0
16:22:12,-601.0,379.0,332.0
16:22:12,-601.0,379.0,332.0
16:22:12,-601.0,379.0,332.0
16:22:12,-601.0,379.0,332.0
16:22:12,-572.0,379.0,333.0
16:22:12,-572.0,379.0,333.0
16:22:12,-572.0,379.0,333.0
16:22:12,-572.0,379.0,333.0
16:22:12,-551.0,378.0,332.0
16:22:12,-551.0,378.0,332.0
16:22:12,-551.0,378.0,332.0
16:22:12,-551.0,378.0,332.0
16:22:12,-495.0,378.0,333.0
16:22:12,-495.0,378.0,333.0
16:22:12,-495.0,378.0,333.0
16:22:12,-495.0,378.0,333.0
16:22:12,-479.0,377.0,334.0
16:22:12,-479.0,377.0,334.0
16:22:12,-479.0,377.0,334.0
16:22:12,-479.0,377.0,334.0
16:22:12,-413.0,377.0,333.0
16:22:12,-413.0,377.0,333.0
16:22:12,-413.0,377.0,333.0
16:22:12,-413.0,377.0,333.0
16:22:12,-308.0,379.0,333.0
16:22:12,-308.0,379.0,333.0
16:22:12,-308.0,379.0,333.0
16:22:12,-308.0,379.0,333.0
16:22:12,-182.0,378.0,332.0
16:22:12,-182.0,378.0,332.0
16:22:12,-182.0,378.0,332.0
16:22:12,-182.0,378.0,332.0
16:22:12,-92.0,377.0,333.0
16:22:12,-92.0,377.0,333.0
16:22:12,-92.0,377.0,333.0
16:22:12,-92.0,377.0,333.0
16:22:12,-135.0,379.0,332.0
16:22:12,-135.0,379.0,332.0
16:22:12,-135.0,379.0,332.0
16:22:12,-135.0,379.0,332.0
16:22:12,-322.0,379.0,332.0
16:22:12,-322.0,379.0,332.0
16:22:12,-322.0,379.0,332.0
16:22:12,-322.0,379.0,332.0
16:22:12,-500.0,378.0,332.0
16:22:12,-500.0,378.0,332.0
16:22:12,-500.0,378.0,332.0
16:22:12,-500.0,378.0,332.0
16:22:12,-596.0,379.0,332.0
16:22:12,-596.0,379.0,332.0
16:22:12,-596.0,379.0,332.0
16:22:12,-596.0,379.0,332.0
16:22:12,-631.0,378.0,334.0
16:22:12,-631.0,378.0,334.0
16:22:12,-631.0,378.0,334.0
16:22:12,-631.0,378.0,334.0
16:22:12,-623.0,379.0,332.0
16:22:12,-623.0,379.0,332.0
16:22:12,-623.0,379.0,332.0
16:22:12,-623.0,379.0,332.0
16:22:12,-595.0,379.0,332.0
16:22:12,-595.0,379.0,332.0
16:22:12,-595.0,379.0,332.0
16:22:12,-595.0,379.0,332.0
16:22:12,-588.0,377.0,333.0
16:22:12,-588.0,377.0,333.0
16:22:12,-588.0,377.0,333.0
16:22:12,-588.0,377.0,333.0
16:22:12,-556.0,377.0,333.0
16:22:12,-556.0,377.0,333.0
16:22:12,-556.0,377.0,333.0
16:22:12,-556.0,377.0,333.0
16:22:12,-546.0,378.0,332.0
16:22:12,-546.0,378.0,332.0
16:22:12,-546.0,378.0,332.0
16:22:12,-546.0,378.0,332.0
16:22:12,-546.0,377.0,333.0
16:22:12,-546.0,377.0,333.0
16:22:12,-546.0,377.0,333.0
16:22:12,-546.0,377.0,333.0
16:22:12,-528.0,379.0,332.0
16:22:12,-528.0,379.0,332.0
16:22:12,-528.0,379.0,332.0
16:22:12,-528.0,379.0,332.0
16:22:12,-541.0,377.0,332.0
16:22:12,-541.0,377.0,332.0
16:22:12,-541.0,377.0,332.0
16:22:12,-541.0,377.0,332.0
16:22:12,-527.0,379.0,331.0
16:22:12,-527.0,379.0,331.0
16:22:12,-527.0,379.0,331.0
16:22:12,-527.0,379.0,331.0
16:22:12,-518.0,378.0,331.0
16:22:12,-518.0,378.0,331.0
16:22:12,-518.0,378.0,331.0
16:22:12,-518.0,378.0,331.0
16:22:12,-527.0,378.0,332.0
16:22:12,-527.0,378.0,332.0
16:22:12,-527.0,378.0,332.0
16:22:12,-527.0,378.0,332.0
16:22:12,-512.0,379.0,331.0
16:22:12,-512.0,379.0,331.0
16:22:12,-512.0,379.0,331.0
16:22:12,-512.0,379.0,331.0
16:22:12,-496.0,380.0,331.0
16:22:12,-496.0,380.0,331.0
16:22:12,-496.0,380.0,331.0
16:22:12,-496.0,380.0,331.0
16:22:12,-499.0,377.0,333.0
16:22:12,-499.0,377.0,333.0
16:22:12,-499.0,377.0,333.0
16:22:12,-499.0,377.0,333.0
16:22:12,-472.0,377.0,333.0
16:22:12,-472.0,377.0,333.0
16:22:12,-472.0,377.0,333.0
16:22:12,-472.0,377.0,333.0
16:22:12,-432.0,378.0,332.0
16:22:12,-432.0,378.0,332.0
16:22:12,-432.0,378.0,332.0
16:22:12,-432.0,378.0,332.0
16:22:12,-342.0,378.0,333.0
16:22:12,-342.0,378.0,333.0
16:22:12,-342.0,378.0,333.0
16:22:12,-342.0,378.0,333.0
16:22:12,-455.0,379.0,332.0
16:22:12,-455.0,379.0,332.0
16:22:12,-455.0,379.0,332.0
16:22:12,-455.0,379.0,332.0
16:22:12,-500.0,378.0,332.0
16:22:12,-500.0,378.0,332.0
16:22:12,-500.0,378.0,332.0
16:22:12,-500.0,378.0,332.0
16:22:12,-461.0,379.0,331.0
16:22:12,-461.0,379.0,331.0
16:22:12,-461.0,379.0,331.0
16:22:12,-461.0,379.0,331.0
16:22:12,-490.0,378.0,331.0
16:22:12,-490.0,378.0,331.0
16:22:12,-490.0,378.0,331.0
16:22:12,-490.0,378.0,331.0
16:22:12,-3.0,379.0,332.0
16:22:12,-3.0,379.0,332.0
16:22:12,-3.0,379.0,332.0
16:22:12,-3.0,379.0,332.0
16:22:12,-79.0,378.0,333.0
16:22:12,-79.0,378.0,333.0
16:22:12,-79.0,378.0,333.0
16:22:12,-79.0,378.0,333.0
16:22:12,-557.0,379.0,332.0
16:22:12,-557.0,379.0,332.0
16:22:12,-557.0,379.0,332.0
16:22:12,-557.0,379.0,332.0
16:22:12,-421.0,378.0,332.0
16:22:12,-421.0,378.0,332.0
16:22:12,-421.0,378.0,332.0
16:22:12,-421.0,378.0,332.0
16:22:13,-375.0,378.0,333.0
16:22:13,-375.0,378.0,333.0
16:22:13,-375.0,378.0,333.0
16:22:13,-375.0,378.0,333.0
16:22:13,-356.0,378.0,332.0
16:22:13,-356.0,378.0,332.0
16:22:13,-356.0,378.0,332.0
16:22:13,-356.0,378.0,332.0
16:22:13,-333.0,379.0,332.0
16:22:13,-333.0,379.0,332.0
16:22:13,-333.0,379.0,332.0
16:22:13,-333.0,379.0,332.0
16:22:13,-260.0,379.0,332.0
16:22:13,-260.0,379.0,332.0
16:22:13,-260.0,379.0,332.0
16:22:13,-260.0,379.0,332.0
16:22:13,-193.0,378.0,334.0
16:22:13,-193.0,378.0,334.0
16:22:13,-193.0,378.0,334.0
16:22:13,-193.0,378.0,334.0
16:22:13,-101.0,377.0,333.0
16:22:13,-101.0,377.0,333.0
16:22:13,-101.0,377.0,333.0
16:22:13,-101.0,377.0,333.0
16:22:13,38.0,378.0,333.0
16:22:13,38.0,378.0,333.0
16:22:13,38.0,378.0,333.0
16:22:13,38.0,378.0,333.0
16:22:13,127.0,377.0,333.0
16:22:13,127.0,377.0,333.0
16:22:13,127.0,377.0,333.0
16:22:13,127.0,377.0,333.0
16:22:13,81.0,377.0,330.0
16:22:13,81.0,377.0,330.0
16:22:13,81.0,377.0,330.0
16:22:13,81.0,377.0,330.0
16:22:13,-136.0,377.0,333.0
16:22:13,-136.0,377.0,333.0
16:22:13,-136.0,377.0,333.0
16:22:13,-136.0,377.0,333.0
16:22:13,-314.0,377.0,331.0
16:22:13,-314.0,377.0,331.0
16:22:13,-314.0,377.0,331.0
16:22:13,-314.0,377.0,331.0
16:22:13,-417.0,377.0,332.0
16:22:13,-417.0,377.0,332.0
16:22:13,-417.0,377.0,332.0
16:22:13,-417.0,377.0,332.0
16:22:13,-470.0,378.0,331.0
16:22:13,-470.0,378.0,331.0
16:22:13,-470.0,378.0,331.0
16:22:13,-470.0,378.0,331.0
16:22:13,-449.0,378.0,332.0
16:22:13,-449.0,378.0,332.0
16:22:13,-449.0,378.0,332.0
16:22:13,-449.0,378.0,332.0
16:22:13,-437.0,377.0,332.0
16:22:13,-437.0,377.0,332.0
16:22:13,-437.0,377.0,332.0
16:22:13,-437.0,377.0,332.0
16:22:13,-412.0,378.0,333.0
16:22:13,-412.0,378.0,333.0
16:22:13,-412.0,378.0,333.0
16:22:13,-412.0,378.0,333.0
16:22:13,-407.0,379.0,331.0
16:22:13,-407.0,379.0,331.0
16:22:13,-407.0,379.0,331.0
16:22:13,-407.0,379.0,331.0
16:22:13,-377.0,379.0,333.0
16:22:13,-377.0,379.0,333.0
16:22:13,-377.0,379.0,333.0
16:22:13,-377.0,379.0,333.0
16:22:13,-352.0,379.0,333.0
16:22:13,-352.0,379.0,333.0
16:22:13,-352.0,379.0,333.0
16:22:13,-352.0,379.0,333.0
16:22:13,-338.0,378.0,331.0
16:22:13,-338.0,378.0,331.0
16:22:13,-338.0,378.0,331.0
16:22:13,-338.0,378.0,331.0
16:22:13,-356.0,379.0,331.0
16:22:13,-356.0,379.0,331.0
16:22:13,-356.0,379.0,331.0
16:22:13,-356.0,379.0,331.0
16:22:13,-337.0,377.0,334.0
16:22:13,-337.0,377.0,334.0
16:22:13,-337.0,377.0,334.0
16:22:13,-337.0,377.0,334.0
16:22:13,-339.0,378.0,332.0
16:22:13,-339.0,378.0,332.0
16:22:13,-339.0,378.0,332.0
16:22:13,-339.0,378.0,332.0
16:22:13,-333.0,380.0,333.0
16:22:13,-333.0,380.0,333.0
16:22:13,-333.0,380.0,333.0
16:22:13,-333.0,380.0,333.0
16:22:13,-283.0,380.0,332.0
16:22:13,-283.0,380.0,332.0
16:22:13,-283.0,380.0,332.0
16:22:13,-283.0,380.0,332.0
16:22:13,-217.0,377.0,333.0
16:22:13,-217.0,377.0,333.0
16:22:13,-217.0,377.0,333.0
16:22:13,-217.0,377.0,333.0
16:22:13,-312.0,378.0,332.0
16:22:13,-312.0,378.0,332.0
16:22:13,-312.0,378.0,332.0
16:22:13,-312.0,378.0,332.0
16:22:13,-328.0,378.0,332.0
16:22:13,-328.0,378.0,332.0
16:22:13,-328.0,378.0,332.0
16:22:13,-328.0,378.0,332.0
16:22:13,-352.0,378.0,332.0
16:22:13,-352.0,378.0,332.0
16:22:13,-352.0,378.0,332.0
16:22:13,-352.0,378.0,332.0
16:22:13,-355.0,379.0,333.0
16:22:13,-355.0,379.0,333.0
16:22:13,-355.0,379.0,333.0
16:22:13,-355.0,379.0,333.0
16:22:13,24.0,378.0,332.0
16:22:13,24.0,378.0,332.0
16:22:13,24.0,378.0,332.0
16:22:13,24.0,378.0,332.0
16:22:13,223.0,378.0,332.0
16:22:13,223.0,378.0,332.0
16:22:13,223.0,378.0,332.0
16:22:13,223.0,378.0,332.0
16:22:13,-428.0,377.0,333.0
16:22:13,-428.0,377.0,333.0
16:22:13,-428.0,377.0,333.0
16:22:13,-428.0,377.0,333.0
16:22:13,-338.0,378.0,333.0
16:22:13,-338.0,378.0,333.0
16:22:13,-338.0,378.0,333.0
16:22:13,-338.0,378.0,333.0
16:22:13,-312.0,378.0,332.0
16:22:13,-312.0,378.0,332.0
16:22:13,-312.0,378.0,332.0
16:22:13,-312.0,378.0,332.0
16:22:13,-265.0,377.0,333.0
16:22:13,-265.0,377.0,333.0
16:22:13,-265.0,377.0,333.0
16:22:13,-265.0,377.0,333.0
16:22:13,-237.0,376.0,333.0
16:22:13,-237.0,376.0,333.0
16:22:13,-237.0,376.0,333.0
16:22:13,-237.0,376.0,333.0
16:22:13,-193.0,378.0,333.0
16:22:13,-193.0,378.0,333.0
16:22:13,-193.0,378.0,333.0
16:22:13,-193.0,378.0,333.0
16:22:13,-131.0,377.0,333.0
16:22:13,-131.0,377.0,333.0
16:22:13,-131.0,377.0,333.0
16:22:13,-131.0,377.0,333.0
16:22:13,-34.0,378.0,333.0
16:22:13,-34.0,378.0,333.0
16:22:13,-34.0,378.0,333.0
16:22:13,-34.0,378.0,333.0
16:22:13,81.0,378.0,332.0
16:22:13,81.0,378.0,332.0
16:22:13,81.0,378.0,332.0
16:22:13,81.0,378.0,332.0
16:22:13,176.0,377.0,332.0
16:22:13,176.0,377.0,332.0
16:22:13,176.0,377.0,332.0
16:22:13,176.0,377.0,332.0
16:22:13,138.0,378.0,331.0
16:22:13,138.0,378.0,331.0
16:22:13,138.0,378.0,331.0
16:22:13,138.0,378.0,331.0
16:22:13,-61.0,379.0,331.0
16:22:13,-61.0,379.0,331.0
16:22:13,-61.0,379.0,331.0
16:22:13,-61.0,379.0,331.0
16:22:13,-250.0,378.0,333.0
16:22:13,-250.0,378.0,333.0
16:22:13,-250.0,378.0,333.0
16:22:13,-250.0,378.0,333.0
16:22:13,-347.0,377.0,332.0
16:22:13,-347.0,377.0,332.0
16:22:13,-347.0,377.0,332.0
16:22:13,-347.0,377.0,332.0
16:22:13,-379.0,379.0,333.0
16:22:13,-379.0,379.0,333.0
16:22:13,-379.0,379.0,333.0
16:22:13,-379.0,379.0,333.0
16:22:13,-380.0,378.0,333.0
16:22:13,-380.0,378.0,333.0
16:22:13,-380.0,378.0,333.0
16:22:13,-380.0,378.0,333.0
16:22:13,-356.0,379.0,332.0
16:22:13,-356.0,379.0,332.0
16:22:13,-356.0,379.0,332.0
16:22:13,-356.0,379.0,332.0
16:22:13,-334.0,378.0,332.0
16:22:13,-334.0,378.0,332.0
16:22:13,-334.0,378.0,332.0
16:22:13,-334.0,378.0,332.0
16:22:13,-294.0,378.0,333.0
16:22:14,-294.0,378.0,333.0
16:22:14,-294.0,378.0,333.0
16:22:14,-294.0,378.0,333.0
16:22:14,-280.0,379.0,332.0
16:22:14,-280.0,379.0,332.0
16:22:14,-280.0,379.0,332.0
16:22:14,-280.0,379.0,332.0
16:22:14,-266.0,378.0,333.0
16:22:14,-266.0,378.0,333.0
16:22:14,-266.0,378.0,333.0
16:22:14,-266.0,378.0,333.0
16:22:14,-261.0,378.0,333.0
16:22:14,-261.0,378.0,333.0
16:22:14,-261.0,378.0,333.0
16:22:14,-261.0,378.0,333.0
16:22:14,-257.0,377.0,333.0
16:22:14,-257.0,377.0,333.0
16:22:14,-257.0,377.0,333.0
16:22:14,-257.0,377.0,333.0
16:22:14,-268.0,377.0,330.0
16:22:14,-268.0,377.0,330.0
16:22:14,-268.0,377.0,330.0
16:22:14,-268.0,377.0,330.0
16:22:14,-267.0,377.0,331.0
16:22:14,-267.0,377.0,331.0
16:22:14,-267.0,377.0,331.0
16:22:14,-267.0,377.0,331.0
16:22:14,-269.0,378.0,331.0
16:22:14,-269.0,378.0,331.0
16:22:14,-269.0,378.0,331.0
16:22:14,-269.0,378.0,331.0
16:22:14,-259.0,377.0,331.0
16:22:14,-259.0,377.0,331.0
16:22:14,-259.0,377.0,331.0
16:22:14,-259.0,377.0,331.0
16:22:14,-203.0,378.0,331.0
16:22:14,-203.0,378.0,331.0
16:22:14,-203.0,378.0,331.0
16:22:14,-203.0,378.0,331.0
16:22:14,-190.0,378.0,332.0
16:22:14,-190.0,378.0,332.0
16:22:14,-190.0,378.0,332.0
16:22:14,-190.0,378.0,332.0
16:22:14,-268.0,378.0,331.0
16:22:14,-268.0,378.0,331.0
16:22:14,-268.0,378.0,331.0
16:22:14,-268.0,378.0,331.0
16:22:14,-290.0,378.0,331.0
16:22:14,-290.0,378.0,331.0
16:22:14,-290.0,378.0,331.0
16:22:14,-290.0,378.0,331.0
16:22:14,-270.0,377.0,331.0
16:22:14,-270.0,377.0,331.0
16:22:14,-270.0,377.0,331.0
16:22:14,-270.0,377.0,331.0
16:22:14,-296.0,378.0,332.0
16:22:14,-296.0,378.0,332.0
16:22:14,-296.0,378.0,332.0
16:22:14,-296.0,378.0,332.0
16:22:14,495.0,377.0,332.0
16:22:14,495.0,377.0,332.0
16:22:14,495.0,377.0,332.0
16:22:14,495.0,377.0,332.0
16:22:14,-37.0,378.0,331.0
16:22:14,-37.0,378.0,331.0
16:22:14,-37.0,378.0,331.0
16:22:14,-37.0,378.0,331.0
16:22:14,-321.0,378.0,332.0
16:22:14,-321.0,378.0,332.0
16:22:14,-321.0,378.0,332.0
16:22:14,-321.0,378.0,332.0
16:22:14,-282.0,379.0,332.0
16:22:14,-282.0,379.0,332.0
16:22:14,-282.0,379.0,332.0
16:22:14,-282.0,379.0,332.0
16:22:14,-270.0,378.0,332.0
16:22:14,-270.0,378.0,332.0
16:22:14,-270.0,378.0,332.0
16:22:14,-270.0,378.0,332.0
16:22:14,-254.0,378.0,333.0
16:22:14,-254.0,378.0,333.0
16:22:14,-254.0,378.0,333.0
16:22:14,-254.0,378.0,333.0
16:22:14,-231.0,379.0,332.0
16:22:14,-231.0,379.0,332.0
16:22:14,-231.0,379.0,332.0
16:22:14,-231.0,379.0,332.0
16:22:14,-171.0,378.0,332.0
16:22:14,-171.0,378.0,332.0
16:22:14,-171.0,378.0,332.0
16:22:14,-171.0,378.0,332.0
16:22:14,-98.0,379.0,333.0
16:22:14,-98.0,379.0,333.0
16:22:14,-98.0,379.0,333.0
16:22:14,-98.0,379.0,333.0
16:22:14,-15.0,378.0,333.0
16:22:14,-15.0,378.0,333.0
16:22:14,-15.0,378.0,333.0
16:22:14,-15.0,378.0,333.0
16:22:14,113.0,379.0,333.0
16:22:14,113.0,379.0,333.0
16:22:14,113.0,379.0,333.0
16:22:14,113.0,379.0,333.0
16:22:14,142.0,379.0,332.0
16:22:14,142.0,379.0,332.0
16:22:14,142.0,379.0,332.0
16:22:14,142.0,379.0,332.0
16:22:14,14.0,378.0,332.0
16:22:14,14.0,378.0,332.0
16:22:14,14.0,378.0,332.0
16:22:14,14.0,378.0,332.0
16:22:14,-207.0,378.0,331.0
16:22:14,-207.0,378.0,331.0
16:22:14,-207.0,378.0,331.0
16:22:14,-207.0,378.0,331.0
16:22:14,-352.0,379.0,331.0
16:22:14,-352.0,379.0,331.0
16:22:14,-352.0,379.0,331.0
16:22:14,-352.0,379.0,331.0
16:22:14,-414.0,378.0,332.0
16:22:14,-414.0,378.0,332.0
16:22:14,-414.0,378.0,332.0
16:22:14,-414.0,378.0,332.0
16:22:14,-406.0,379.0,333.0
16:22:14,-406.0,379.0,333.0
16:22:14,-406.0,379.0,333.0
16:22:14,-406.0,379.0,333.0
16:22:14,-410.0,378.0,332.0
16:22:14,-410.0,378.0,332.0
16:22:14,-410.0,378.0,332.0
16:22:14,-410.0,378.0,332.0
16:22:14,-394.0,378.0,331.0
16:22:14,-394.0,378.0,331.0
16:22:14,-394.0,378.0,331.0
16:22:14,-394.0,378.0,331.0
16:22:14,-359.0,378.0,333.0
16:22:14,-359.0,378.0,333.0
16:22:14,-359.0,378.0,333.0
16:22:14,-359.0,378.0,333.0
16:22:14,-361.0,378.0,333.0
16:22:14,-361.0,378.0,333.0
16:22:14,-361.0,378.0,333.0
16:22:14,-361.0,378.0,333.0
16:22:14,-357.0,378.0,331.0
16:22:14,-357.0,378.0,331.0
16:22:14,-357.0,378.0,331.0
16:22:14,-357.0,378.0,331.0
16:22:14,-352.0,378.0,333.0
16:22:14,-352.0,378.0,333.0
16:22:14,-352.0,378.0,333.0
16:22:14,-352.0,378.0,333.0
16:22:14,-337.0,379.0,331.0
16:22:14,-337.0,379.0,331.0
16:22:14,-337.0,379.0,331.0
16:22:14,-337.0,379.0,331.0
16:22:14,-347.0,378.0,333.0
16:22:14,-347.0,378.0,333.0
16:22:14,-347.0,378.0,333.0
16:22:14,-347.0,378.0,333.0
16:22:14,-327.0,377.0,334.0
16:22:14,-327.0,377.0,334.0
16:22:14,-327.0,377.0,334.0
16:22:14,-327.0,377.0,334.0
16:22:14,-285.0,378.0,334.0
16:22:14,-285.0,378.0,334.0
16:22:14,-285.0,378.0,334.0
16:22:14,-285.0,378.0,334.0
16:22:14,-267.0,377.0,333.0
16:22:14,-267.0,377.0,333.0
16:22:14,-267.0,377.0,333.0
16:22:14,-267.0,377.0,333.0
16:22:14,-391.0,379.0,332.0
16:22:14,-391.0,379.0,332.0
16:22:14,-391.0,379.0,332.0
16:22:14,-391.0,379.0,332.0
16:22:14,-400.0,377.0,333.0
16:22:14,-400.0,377.0,333.0
16:22:14,-400.0,377.0,333.0
16:22:14,-400.0,377.0,333.0
16:22:14,-394.0,378.0,333.0
16:22:14,-394.0,378.0,333.0
16:22:14,-394.0,378.0,333.0
16:22:14,-394.0,378.0,333.0
16:22:14,-475.0,378.0,333.0
16:22:14,-475.0,378.0,333.0
16:22:14,-475.0,378.0,333.0
16:22:14,-475.0,378.0,333.0
16:22:14,469.0,378.0,332.0
16:22:14,469.0,378.0,332.0
16:22:14,469.0,378.0,332.0
16:22:14,469.0,378.0,332.0
16:22:14,-183.0,378.0,332.0
16:22:14,-183.0,378.0,332.0
16:22:14,-183.0,378.0,332.0
16:22:14,-183.0,378.0,332.0
16:22:14,-451.0,379.0,333.0
16:22:14,-451.0,379.0,333.0
16:22:14,-451.0,379.0,333.0
16:22:14,-451.0,379.0,333.0
16:22:14,-434.0,379.0,333.0
16:22:14,-434.0,379.0,333.0
16:22:15,-434.0,379.0,333.0
16:22:15,-434.0,379.0,333.0
16:22:15,-405.0,379.0,331.0
16:22:15,-405.0,379.0,331.0
16:22:15,-405.0,379.0,331.0
16:22:15,-405.0,379.0,331.0
16:22:15,-361.0,376.0,332.0
16:22:15,-361.0,376.0,332.0
16:22:15,-361.0,376.0,332.0
16:22:15,-361.0,376.0,332.0
16:22:15,-353.0,378.0,333.0
16:22:15,-353.0,378.0,333.0
16:22:15,-353.0,378.0,333.0
16:22:15,-353.0,378.0,333.0
16:22:15,-307.0,378.0,330.0
16:22:15,-307.0,378.0,330.0
16:22:15,-307.0,378.0,330.0
16:22:15,-307.0,378.0,330.0
16:22:15,-205.0,377.0,331.0
16:22:15,-205.0,377.0,331.0
16:22:15,-205.0,377.0,331.0
16:22:15,-205.0,377.0,331.0
16:22:15,-108.0,378.0,331.0
16:22:15,-108.0,378.0,331.0
16:22:15,-108.0,378.0,331.0
16:22:15,-108.0,378.0,331.0
16:22:15,28.0,378.0,333.0
16:22:15,28.0,378.0,333.0
16:22:15,28.0,378.0,333.0
16:22:15,28.0,378.0,333.0
16:22:15,38.0,378.0,332.0
16:22:15,38.0,378.0,332.0
16:22:15,38.0,378.0,332.0
16:22:15,38.0,378.0,332.0
16:22:15,-129.0,380.0,332.0
16:22:15,-129.0,380.0,332.0
16:22:15,-129.0,380.0,332.0
16:22:15,-129.0,380.0,332.0
16:22:15,-368.0,379.0,332.0
16:22:15,-368.0,379.0,332.0
16:22:15,-368.0,379.0,332.0
16:22:15,-368.0,379.0,332.0
16:22:15,-485.0,378.0,332.0
16:22:15,-485.0,378.0,332.0
16:22:15,-485.0,378.0,332.0
16:22:15,-485.0,378.0,332.0
16:22:15,-530.0,379.0,332.0
16:22:15,-530.0,379.0,332.0
16:22:15,-530.0,379.0,332.0
16:22:15,-530.0,379.0,332.0
16:22:15,-566.0,378.0,332.0
16:22:15,-566.0,378.0,332.0
16:22:15,-566.0,378.0,332.0
16:22:15,-566.0,378.0,332.0
16:22:15,-560.0,377.0,333.0
16:22:15,-560.0,377.0,333.0
16:22:15,-560.0,377.0,333.0
16:22:15,-560.0,377.0,333.0
16:22:15,-527.0,378.0,332.0
16:22:15,-527.0,378.0,332.0
16:22:15,-527.0,378.0,332.0
16:22:15,-527.0,378.0,332.0
16:22:15,-526.0,377.0,333.0
16:22:15,-526.0,377.0,333.0
16:22:15,-526.0,377.0,333.0
16:22:15,-526.0,377.0,333.0
16:22:15,-501.0,378.0,332.0
16:22:15,-501.0,378.0,332.0
16:22:15,-501.0,378.0,332.0
16:22:15,-501.0,378.0,332.0
16:22:15,-482.0,378.0,332.0
16:22:15,-482.0,378.0,332.0
16:22:15,-482.0,378.0,332.0
16:22:15,-482.0,378.0,332.0
16:22:15,-493.0,377.0,331.0
16:22:15,-493.0,377.0,331.0
16:22:15,-493.0,377.0,331.0
16:22:15,-493.0,377.0,331.0
16:22:15,-496.0,377.0,333.0
16:22:15,-496.0,377.0,333.0
16:22:15,-496.0,377.0,333.0
16:22:15,-496.0,377.0,333.0
16:22:15,-513.0,378.0,334.0
16:22:15,-513.0,378.0,334.0
16:22:15,-513.0,378.0,334.0
16:22:15,-513.0,378.0,334.0
16:22:15,-502.0,377.0,333.0
16:22:15,-502.0,377.0,333.0
16:22:15,-502.0,377.0,333.0
16:22:15,-502.0,377.0,333.0
16:22:15,-519.0,377.0,334.0
16:22:15,-519.0,377.0,334.0
16:22:15,-519.0,377.0,334.0
16:22:15,-519.0,377.0,334.0
16:22:15,-475.0,378.0,332.0
16:22:15,-475.0,378.0,332.0
16:22:15,-475.0,378.0,332.0
16:22:15,-475.0,378.0,332.0
16:22:15,-409.0,378.0,332.0
16:22:15,-409.0,378.0,332.0
16:22:15,-409.0,378.0,332.0
16:22:15,-409.0,378.0,332.0
16:22:15,-472.0,380.0,331.0
16:22:15,-472.0,380.0,331.0
16:22:15,-472.0,380.0,331.0
16:22:15,-472.0,380.0,331.0
16:22:15,-577.0,378.0,332.0
16:22:15,-577.0,378.0,332.0
16:22:15,-577.0,378.0,332.0
16:22:15,-577.0,378.0,332.0
16:22:15,-555.0,378.0,331.0
16:22:15,-555.0,378.0,331.0
16:22:15,-555.0,378.0,331.0
16:22:15,-555.0,378.0,331.0
16:22:15,-564.0,378.0,332.0
16:22:15,-564.0,378.0,332.0
16:22:15,-564.0,378.0,332.0
16:22:15,-564.0,378.0,332.0
16:22:15,-328.0,378.0,333.0
16:22:15,-328.0,378.0,333.0
16:22:15,-328.0,378.0,333.0
16:22:15,-328.0,378.0,333.0
16:22:15,168.0,378.0,333.0
16:22:15,168.0,378.0,333.0
16:22:15,168.0,378.0,333.0
16:22:15,168.0,378.0,333.0
16:22:15,-509.0,377.0,332.0
16:22:15,-509.0,377.0,332.0
16:22:15,-509.0,377.0,332.0
16:22:15,-509.0,377.0,332.0
16:22:15,-579.0,377.0,333.0
16:22:15,-579.0,377.0,333.0
16:22:15,-579.0,377.0,333.0
16:22:15,-579.0,377.0,333.0
16:22:15,-576.0,377.0,332.0
16:22:15,-576.0,377.0,332.0
16:22:15,-576.0,377.0,332.0
16:22:15,-576.0,377.0,332.0
16:22:15,-537.0,378.0,332.0
16:22:15,-537.0,378.0,332.0
16:22:15,-537.0,378.0,332.0
16:22:15,-537.0,378.0,332.0
16:22:15,-510.0,377.0,331.0
16:22:15,-510.0,377.0,331.0
16:22:15,-510.0,377.0,331.0
16:22:15,-510.0,377.0,331.0
16:22:15,-472.0,378.0,332.0
16:22:15,-472.0,378.0,332.0
16:22:15,-472.0,378.0,332.0
16:22:15,-472.0,378.0,332.0
16:22:15,-429.0,377.0,333.0
16:22:15,-429.0,377.0,333.0
16:22:15,-429.0,377.0,333.0
16:22:15,-429.0,377.0,333.0
16:22:15,-353.0,378.0,331.0
16:22:15,-353.0,378.0,331.0
16:22:15,-353.0,378.0,331.0
16:22:15,-353.0,378.0,331.0
16:22:15,-216.0,378.0,333.0
16:22:15,-216.0,378.0,333.0
16:22:15,-216.0,378.0,333.0
16:22:15,-216.0,378.0,333.0
16:22:15,-108.0,377.0,333.0
16:22:15,-108.0,377.0,333.0
16:22:15,-108.0,377.0,333.0
16:22:15,-108.0,377.0,333.0
16:22:15,-141.0,379.0,332.0
16:22:15,-141.0,379.0,332.0
16:22:15,-141.0,379.0,332.0
16:22:15,-141.0,379.0,332.0
16:22:15,-333.0,380.0,332.0
16:22:15,-333.0,380.0,332.0
16:22:15,-333.0,380.0,332.0
16:22:15,-333.0,380.0,332.0
16:22:15,-528.0,378.0,332.0
16:22:15,-528.0,378.0,332.0
16:22:15,-528.0,378.0,332.0
16:22:15,-528.0,378.0,332.0
16:22:15,-666.0,378.0,332.0
16:22:15,-666.0,378.0,332.0
16:22:15,-666.0,378.0,332.0
16:22:15,-666.0,378.0,332.0
16:22:15,-678.0,377.0,332.0
16:22:15,-678.0,377.0,332.0
16:22:15,-678.0,377.0,332.0
16:22:15,-678.0,377.0,332.0
16:22:15,-687.0,379.0,332.0
16:22:15,-687.0,379.0,332.0
16:22:15,-687.0,379.0,332.0
16:22:15,-687.0,379.0,332.0
16:22:15,-686.0,377.0,333.0
16:22:15,-686.0,377.0,333.0
16:22:15,-686.0,377.0,333.0
16:22:15,-686.0,377.0,333.0
16:22:15,-678.0,378.0,333.0
16:22:15,-678.0,378.0,333.0
16:22:15,-678.0,378.0,333.0
16:22:15,-678.0,378.0,333.0
16:22:15,-644.0,379.0,333.0
16:22:15,-644.0,379.0,333.0
16:22:15,-644.0,379.0,333.0
16:22:16,-644.0,379.0,333.0
16:22:16,-655.0,377.0,333.0
16:22:16,-655.0,377.0,333.0
16:22:16,-655.0,377.0,333.0
16:22:16,-655.0,377.0,333.0
16:22:16,-620.0,378.0,332.0
16:22:16,-620.0,378.0,332.0
16:22:16,-620.0,378.0,332.0
16:22:16,-620.0,378.0,332.0
16:22:16,-631.0,378.0,332.0
16:22:16,-631.0,378.0,332.0
16:22:16,-631.0,378.0,332.0
16:22:16,-631.0,378.0,332.0
16:22:16,-635.0,379.0,333.0
16:22:16,-635.0,379.0,333.0
16:22:16,-635.0,379.0,333.0
16:22:16,-635.0,379.0,333.0
16:22:16,-629.0,379.0,333.0
16:22:16,-629.0,379.0,333.0
16:22:16,-629.0,379.0,333.0
16:22:16,-629.0,379.0,333.0
16:22:16,-633.0,378.0,332.0
16:22:16,-633.0,378.0,332.0
16:22:16,-633.0,378.0,332.0
16:22:16,-633.0,378.0,332.0
16:22:16,-647.0,379.0,333.0
16:22:16,-647.0,379.0,333.0
16:22:16,-647.0,379.0,333.0
16:22:16,-647.0,379.0,333.0
16:22:16,-609.0,378.0,333.0
16:22:16,-609.0,378.0,333.0
16:22:16,-609.0,378.0,333.0
16:22:16,-609.0,378.0,333.0
16:22:16,-630.0,377.0,333.0
16:22:16,-630.0,377.0,333.0
16:22:16,-630.0,377.0,333.0
16:22:16,-630.0,377.0,333.0
16:22:16,-642.0,378.0,332.0
16:22:16,-642.0,378.0,332.0
16:22:16,-642.0,378.0,332.0
16:22:16,-642.0,378.0,332.0
16:22:16,-613.0,379.0,332.0
16:22:16,-613.0,379.0,332.0
16:22:16,-613.0,379.0,332.0
16:22:16,-613.0,379.0,332.0
16:22:16,-574.0,377.0,331.0
16:22:16,-574.0,377.0,331.0
16:22:16,-574.0,377.0,331.0
16:22:16,-574.0,377.0,331.0
16:22:16,-523.0,377.0,332.0
16:22:16,-523.0,377.0,332.0
16:22:16,-523.0,377.0,332.0
16:22:16,-523.0,377.0,332.0
16:22:16,-535.0,377.0,332.0
16:22:16,-535.0,377.0,332.0
16:22:16,-535.0,377.0,332.0
16:22:16,-535.0,377.0,332.0
16:22:16,-626.0,378.0,331.0
16:22:16,-626.0,378.0,331.0
16:22:16,-626.0,378.0,331.0
16:22:16,-626.0,378.0,331.0
16:22:16,-610.0,378.0,331.0
16:22:16,-610.0,378.0,331.0
16:22:16,-610.0,378.0,331.0
16:22:16,-610.0,378.0,331.0
16:22:16,-632.0,377.0,332.0
16:22:16,-632.0,377.0,332.0
16:22:16,-632.0,377.0,332.0
16:22:16,-632.0,377.0,332.0
16:22:16,-599.0,377.0,331.0
16:22:16,-599.0,377.0,331.0
16:22:16,-599.0,377.0,331.0
16:22:16,-599.0,377.0,331.0
16:22:16,223.0,378.0,331.0
16:22:16,223.0,378.0,331.0
16:22:16,223.0,378.0,331.0
16:22:16,223.0,378.0,331.0
16:22:16,-432.0,378.0,332.0
16:22:16,-432.0,378.0,332.0
16:22:16,-432.0,378.0,332.0
16:22:16,-432.0,378.0,332.0
16:22:16,-667.0,378.0,331.0
16:22:16,-667.0,378.0,331.0
16:22:16,-667.0,378.0,331.0
16:22:16,-667.0,378.0,331.0
16:22:16,-631.0,378.0,334.0
16:22:16,-631.0,378.0,334.0
16:22:16,-631.0,378.0,334.0
16:22:16,-631.0,378.0,334.0
16:22:16,-616.0,379.0,332.0
16:22:16,-616.0,379.0,332.0
16:22:16,-616.0,379.0,332.0
16:22:16,-616.0,379.0,332.0
16:22:16,-568.0,378.0,332.0
16:22:16,-568.0,378.0,332.0
16:22:16,-568.0,378.0,332.0
16:22:16,-568.0,378.0,332.0
16:22:16,-532.0,378.0,333.0
16:22:16,-532.0,378.0,333.0
16:22:16,-532.0,378.0,333.0
16:22:16,-532.0,378.0,333.0
16:22:16,-486.0,377.0,333.0
16:22:16,-486.0,377.0,333.0
16:22:16,-486.0,377.0,333.0
16:22:16,-486.0,377.0,333.0
16:22:16,-402.0,378.0,333.0
16:22:16,-402.0,378.0,333.0
16:22:16,-402.0,378.0,333.0
16:22:16,-402.0,378.0,333.0
16:22:16,-301.0,380.0,332.0
16:22:16,-301.0,380.0,332.0
16:22:16,-301.0,380.0,332.0
16:22:16,-301.0,380.0,332.0
16:22:16,-185.0,377.0,332.0
16:22:16,-185.0,377.0,332.0
16:22:16,-185.0,377.0,332.0
16:22:16,-185.0,377.0,332.0
16:22:16,-154.0,376.0,334.0
16:22:16,-154.0,376.0,334.0
16:22:16,-154.0,376.0,334.0
16:22:16,-154.0,376.0,334.0
16:22:16,-283.0,378.0,332.0
16:22:16,-283.0,378.0,332.0
16:22:16,-283.0,378.0,332.0
16:22:16,-283.0,378.0,332.0
16:22:16,-483.0,379.0,332.0
16:22:16,-483.0,379.0,332.0
16:22:16,-483.0,379.0,332.0
16:22:16,-483.0,379.0,332.0
16:22:16,-644.0,378.0,331.0
16:22:16,-644.0,378.0,331.0
16:22:16,-644.0,378.0,331.0
16:22:16,-644.0,378.0,331.0
16:22:16,-705.0,378.0,333.0
16:22:16,-705.0,378.0,333.0
16:22:16,-705.0,378.0,333.0
16:22:16,-705.0,378.0,333.0
16:22:16,-691.0,378.0,332.0
16:22:16,-691.0,378.0,332.0
16:22:16,-691.0,378.0,332.0
16:22:16,-691.0,378.0,332.0
16:22:16,-688.0,378.0,332.0
16:22:16,-688.0,378.0,332.0
16:22:16,-688.0,378.0,332.0
16:22:16,-688.0,378.0,332.0
16:22:16,-673.0,378.0,333.0
16:22:16,-673.0,378.0,333.0
16:22:16,-673.0,378.0,333.0
16:22:16,-673.0,378.0,333.0
16:22:16,-637.0,378.0,333.0
16:22:16,-637.0,378.0,333.0
16:22:16,-637.0,378.0,333.0
16:22:16,-637.0,378.0,333.0
16:22:16,-634.0,378.0,332.0
16:22:16,-634.0,378.0,332.0
16:22:16,-634.0,378.0,332.0
16:22:16,-634.0,378.0,332.0
16:22:16,-613.0,378.0,332.0
16:22:16,-613.0,378.0,332.0
16:22:16,-613.0,378.0,332.0
16:22:16,-613.0,378.0,332.0
16:22:16,-630.0,378.0,332.0
16:22:16,-630.0,378.0,332.0
16:22:16,-630.0,378.0,332.0
16:22:16,-630.0,378.0,332.0
16:22:16,-614.0,378.0,333.0
16:22:16,-614.0,378.0,333.0
16:22:16,-614.0,378.0,333.0
16:22:16,-614.0,378.0,333.0
16:22:16,-606.0,379.0,332.0
16:22:16,-606.0,379.0,332.0
16:22:16,-606.0,379.0,332.0
16:22:16,-606.0,379.0,332.0
16:22:16,-610.0,377.0,332.0
16:22:16,-610.0,377.0,332.0
16:22:16,-610.0,377.0,332.0
16:22:16,-610.0,377.0,332.0
16:22:16,-596.0,377.0,333.0
16:22:16,-596.0,377.0,333.0
16:22:16,-596.0,377.0,333.0
16:22:16,-596.0,377.0,333.0
16:22:16,-597.0,378.0,332.0
16:22:16,-597.0,378.0,332.0
16:22:16,-597.0,378.0,332.0
16:22:16,-597.0,378.0,332.0
16:22:16,-581.0,377.0,331.0
16:22:16,-581.0,377.0,331.0
16:22:16,-581.0,377.0,331.0
16:22:16,-581.0,377.0,331.0
16:22:16,-585.0,376.0,331.0
16:22:16,-585.0,376.0,331.0
16:22:16,-585.0,376.0,331.0
16:22:16,-585.0,376.0,331.0
16:22:16,-574.0,378.0,332.0
16:22:16,-574.0,378.0,332.0
16:22:16,-574.0,378.0,332.0
16:22:16,-574.0,378.0,332.0
16:22:16,-546.0,378.0,331.0
16:22:16,-546.0,378.0,331.0
16:22:16,-546.0,378.0,331.0
16:22:16,-546.0,378.0,331.0
16:22:17,-504.0,378.0,333.0
16:22:17,-504.0,378.0,333.0
16:22:17,-504.0,378.0,333.0
16:22:17,-504.0,378.0,333.0
16:22:17,-431.0,379.0,332.0
16:22:17,-431.0,379.0,332.0
16:22:17,-431.0,379.0,332.0
16:22:17,-431.0,379.0,332.0
16:22:17,-522.0,377.0,333.0
16:22:17,-522.0,377.0,333.0
16:22:17,-522.0,377.0,333.0
16:22:17,-522.0,377.0,333.0
16:22:17,-547.0,377.0,333.0
16:22:17,-547.0,377.0,333.0
16:22:17,-547.0,377.0,333.0
16:22:17,-547.0,377.0,333.0
16:22:17,-562.0,379.0,331.0
16:22:17,-562.0,379.0,331.0
16:22:17,-562.0,379.0,331.0
16:22:17,-562.0,379.0,331.0
16:22:17,-569.0,378.0,332.0
16:22:17,-569.0,378.0,332.0
16:22:17,-569.0,378.0,332.0
16:22:17,-569.0,378.0,332.0
16:22:17,-179.0,379.0,331.0
16:22:17,-179.0,379.0,331.0
16:22:17,-179.0,379.0,331.0
16:22:17,-179.0,379.0,331.0
16:22:17,-10.0,379.0,334.0
16:22:17,-10.0,379.0,334.0
16:22:17,-10.0,379.0,334.0
16:22:17,-10.0,379.0,334.0
16:22:17,-630.0,378.0,333.0
16:22:17,-630.0,378.0,333.0
16:22:17,-630.0,378.0,333.0
16:22:17,-630.0,378.0,333.0
16:22:17,-521.0,378.0,331.0
16:22:17,-521.0,378.0,331.0
16:22:17,-521.0,378.0,331.0
16:22:17,-521.0,378.0,331.0
16:22:17,-524.0,380.0,333.0
16:22:17,-524.0,380.0,333.0
16:22:17,-524.0,380.0,333.0
16:22:17,-524.0,380.0,333.0
16:22:17,-475.0,378.0,333.0
16:22:17,-475.0,378.0,333.0
16:22:17,-475.0,378.0,333.0
16:22:17,-475.0,378.0,333.0
16:22:17,-443.0,378.0,333.0
16:22:17,-443.0,378.0,333.0
16:22:17,-443.0,378.0,333.0
16:22:17,-443.0,378.0,333.0
16:22:17,-407.0,378.0,332.0
16:22:17,-407.0,378.0,332.0
16:22:17,-407.0,378.0,332.0
16:22:17,-407.0,378.0,332.0
16:22:17,-335.0,377.0,332.0
16:22:17,-335.0,377.0,332.0
16:22:17,-335.0,377.0,332.0
16:22:17,-335.0,377.0,332.0
16:22:17,-238.0,377.0,332.0
16:22:17,-238.0,377.0,332.0
16:22:17,-238.0,377.0,332.0
16:22:17,-238.0,377.0,332.0
16:22:17,-104.0,377.0,331.0
16:22:17,-104.0,377.0,331.0
16:22:17,-104.0,377.0,331.0
16:22:17,-104.0,377.0,331.0
16:22:17,-3.0,378.0,331.0
16:22:17,-3.0,378.0,331.0
16:22:17,-3.0,378.0,331.0
16:22:17,-3.0,378.0,331.0
16:22:17,-46.0,377.0,332.0
16:22:17,-46.0,377.0,332.0
16:22:17,-46.0,377.0,332.0
16:22:17,-46.0,377.0,332.0
16:22:17,-219.0,377.0,332.0
16:22:17,-219.0,377.0,332.0
16:22:17,-219.0,377.0,332.0
16:22:17,-219.0,377.0,332.0
16:22:17,-419.0,377.0,332.0
16:22:17,-419.0,377.0,332.0
16:22:17,-419.0,377.0,332.0
16:22:17,-419.0,377.0,332.0
16:22:17,-523.0,378.0,333.0
16:22:17,-523.0,378.0,333.0
16:22:17,-523.0,378.0,333.0
16:22:17,-523.0,378.0,333.0
16:22:17,-546.0,378.0,333.0
16:22:17,-546.0,378.0,333.0
16:22:17,-546.0,378.0,333.0
16:22:17,-546.0,378.0,333.0
16:22:17,-536.0,377.0,333.0
16:22:17,-536.0,377.0,333.0
16:22:17,-536.0,377.0,333.0
16:22:17,-536.0,377.0,333.0
16:22:17,-513.0,379.0,332.0
16:22:17,-513.0,379.0,332.0
16:22:17,-513.0,379.0,332.0
16:22:17,-513.0,379.0,332.0
16:22:17,-521.0,377.0,332.0
16:22:17,-521.0,377.0,332.0
16:22:17,-521.0,377.0,332.0
16:22:17,-521.0,377.0,332.0
16:22:17,-467.0,378.0,334.0
16:22:17,-467.0,378.0,334.0
16:22:17,-467.0,378.0,334.0
16:22:17,-467.0,378.0,334.0
16:22:17,-446.0,379.0,331.0
16:22:17,-446.0,379.0,331.0
16:22:17,-446.0,379.0,331.0
16:22:17,-446.0,379.0,331.0
16:22:17,-442.0,378.0,333.0
16:22:17,-442.0,378.0,333.0
16:22:17,-442.0,378.0,333.0
16:22:17,-442.0,378.0,333.0
16:22:17,-442.0,379.0,333.0
16:22:17,-442.0,379.0,333.0
16:22:17,-442.0,379.0,333.0
16:22:17,-442.0,379.0,333.0
16:22:17,-431.0,378.0,332.0
16:22:17,-431.0,378.0,332.0
16:22:17,-431.0,378.0,332.0
16:22:17,-431.0,378.0,332.0
16:22:17,-427.0,377.0,333.0
16:22:17,-427.0,377.0,333.0
16:22:17,-427.0,377.0,333.0
16:22:17,-427.0,377.0,333.0
16:22:17,-427.0,378.0,334.0
16:22:17,-427.0,378.0,334.0
16:22:17,-427.0,378.0,334.0
16:22:17,-427.0,378.0,334.0
16:22:17,-430.0,379.0,331.0
16:22:17,-430.0,379.0,331.0
16:22:17,-430.0,379.0,331.0
16:22:17,-430.0,379.0,331.0
16:22:17,-418.0,378.0,333.0
16:22:17,-418.0,378.0,333.0
16:22:17,-418.0,378.0,333.0
16:22:17,-418.0,378.0,333.0
16:22:17,-392.0,378.0,333.0
16:22:17,-392.0,378.0,333.0
16:22:17,-392.0,378.0,333.0
16:22:17,-392.0,378.0,333.0
16:22:17,-378.0,378.0,333.0
16:22:17,-378.0,378.0,333.0
16:22:17,-378.0,378.0,333.0
16:22:17,-378.0,378.0,333.0
16:22:17,-313.0,378.0,332.0
16:22:17,-313.0,378.0,332.0
16:22:17,-313.0,378.0,332.0
16:22:17,-313.0,378.0,332.0
16:22:17,-294.0,377.0,333.0
16:22:17,-294.0,377.0,333.0
16:22:17,-294.0,377.0,333.0
16:22:17,-294.0,377.0,333.0
16:22:17,-394.0,378.0,333.0
16:22:17,-394.0,378.0,333.0
16:22:17,-394.0,378.0,333.0
16:22:17,-394.0,378.0,333.0
16:22:17,-398.0,378.0,331.0
16:22:17,-398.0,378.0,331.0
16:22:17,-398.0,378.0,331.0
16:22:17,-398.0,378.0,331.0
16:22:17,-405.0,379.0,331.0
16:22:17,-405.0,379.0,331.0
16:22:17,-405.0,379.0,331.0
16:22:17,-405.0,379.0,331.0
16:22:17,-482.0,379.0,332.0
16:22:17,-482.0,379.0,332.0
16:22:17,-482.0,379.0,332.0
16:22:17,-482.0,379.0,332.0
16:22:17,474.0,378.0,332.0
16:22:17,474.0,378.0,332.0
16:22:17,474.0,378.0,332.0
16:22:17,474.0,378.0,332.0
16:22:17,-144.0,379.0,332.0
16:22:17,-144.0,379.0,332.0
16:22:17,-144.0,379.0,332.0
16:22:17,-144.0,379.0,332.0
16:22:17,-433.0,378.0,333.0
16:22:17,-433.0,378.0,333.0
16:22:17,-433.0,378.0,333.0
16:22:17,-433.0,378.0,333.0
16:22:17,-370.0,379.0,333.0
16:22:17,-370.0,379.0,333.0
16:22:17,-370.0,379.0,333.0
16:22:17,-370.0,379.0,333.0
16:22:17,-350.0,378.0,331.0
16:22:17,-350.0,378.0,331.0
16:22:17,-350.0,378.0,331.0
16:22:17,-350.0,378.0,331.0
16:22:17,-320.0,378.0,332.0
16:22:17,-320.0,378.0,332.0
16:22:17,-320.0,378.0,332.0
16:22:17,-320.0,378.0,332.0
16:22:17,-279.0,378.0,332.0
16:22:17,-279.0,378.0,332.0
16:22:17,-279.0,378.0,332.0
16:22:17,-279.0,378.0,332.0
16:22:17,-217.0,378.0,333.0
16:22:18,-217.0,378.0,333.0
16:22:18,-217.0,378.0,333.0
16:22:18,-217.0,378.0,333.0
16:22:18,-142.0,377.0,332.0
16:22:18,-142.0,377.0,332.0
16:22:18,-142.0,377.0,332.0
16:22:18,-142.0,377.0,332.0
16:22:18,-21.0,378.0,332.0
16:22:18,-21.0,378.0,332.0
16:22:18,-21.0,378.0,332.0
16:22:18,-21.0,378.0,332.0
16:22:18,122.0,377.0,333.0
16:22:18,122.0,377.0,333.0
16:22:18,122.0,377.0,333.0
16:22:18,122.0,377.0,333.0
16:22:18,181.0,376.0,332.0
16:22:18,181.0,376.0,332.0
16:22:18,181.0,376.0,332.0
16:22:18,181.0,376.0,332.0
16:22:18,51.0,377.0,333.0
16:22:18,51.0,377.0,333.0
16:22:18,51.0,377.0,333.0
16:22:18,51.0,377.0,333.0
16:22:18,-171.0,378.0,333.0
16:22:18,-171.0,378.0,333.0
16:22:18,-171.0,378.0,333.0
16:22:18,-171.0,378.0,333.0
16:22:18,-331.0,378.0,333.0
16:22:18,-331.0,378.0,333.0
16:22:18,-331.0,378.0,333.0
16:22:18,-331.0,378.0,333.0
16:22:18,-391.0,378.0,333.0
16:22:18,-391.0,378.0,333.0
16:22:18,-391.0,378.0,333.0
16:22:18,-391.0,378.0,333.0
16:22:18,-398.0,377.0,332.0
16:22:18,-398.0,377.0,332.0
16:22:18,-398.0,377.0,332.0
16:22:18,-398.0,377.0,332.0
16:22:18,-399.0,376.0,332.0
16:22:18,-399.0,376.0,332.0
16:22:18,-399.0,376.0,332.0
16:22:18,-399.0,376.0,332.0
16:22:18,-371.0,378.0,333.0
16:22:18,-371.0,378.0,333.0
16:22:18,-371.0,378.0,333.0
16:22:18,-371.0,378.0,333.0
16:22:18,-358.0,377.0,333.0
16:22:18,-358.0,377.0,333.0
16:22:18,-358.0,377.0,333.0
16:22:18,-358.0,377.0,333.0
16:22:18,-362.0,377.0,333.0
16:22:18,-362.0,377.0,333.0
16:22:18,-362.0,377.0,333.0
16:22:18,-362.0,377.0,333.0
16:22:18,-306.0,378.0,332.0
16:22:18,-306.0,378.0,332.0
16:22:18,-306.0,378.0,332.0
16:22:18,-306.0,378.0,332.0
16:22:18,-297.0,378.0,332.0
16:22:18,-297.0,378.0,332.0
16:22:18,-297.0,378.0,332.0
16:22:18,-297.0,378.0,332.0
16:22:18,-293.0,378.0,333.0
16:22:18,-293.0,378.0,333.0
16:22:18,-293.0,378.0,333.0
16:22:18,-293.0,378.0,333.0
16:22:18,-308.0,377.0,332.0
16:22:18,-308.0,377.0,332.0
16:22:18,-308.0,377.0,332.0
16:22:18,-308.0,377.0,332.0
16:22:18,-291.0,376.0,333.0
16:22:18,-291.0,376.0,333.0
16:22:18,-291.0,376.0,333.0
16:22:18,-291.0,376.0,333.0
16:22:18,-305.0,377.0,331.0
16:22:18,-305.0,377.0,331.0
16:22:18,-305.0,377.0,331.0
16:22:18,-305.0,377.0,331.0
16:22:18,-296.0,377.0,332.0
16:22:18,-296.0,377.0,332.0
16:22:18,-296.0,377.0,332.0
16:22:18,-296.0,377.0,332.0
16:22:18,-277.0,376.0,331.0
16:22:18,-277.0,376.0,331.0
16:22:18,-277.0,376.0,331.0
16:22:18,-277.0,376.0,331.0
16:22:18,-262.0,378.0,330.0
16:22:18,-262.0,378.0,330.0
16:22:18,-262.0,378.0,330.0
16:22:18,-262.0,378.0,330.0
16:22:18,-270.0,378.0,331.0
16:22:18,-270.0,378.0,331.0
16:22:18,-270.0,378.0,331.0
16:22:18,-270.0,378.0,331.0
16:22:18,-239.0,378.0,333.0
16:22:18,-239.0,378.0,333.0
16:22:18,-239.0,378.0,333.0
16:22:18,-239.0,378.0,333.0
16:22:18,-199.0,378.0,332.0
16:22:18,-199.0,378.0,332.0
16:22:18,-199.0,378.0,332.0
16:22:18,-199.0,378.0,332.0
16:22:18,-137.0,377.0,332.0
16:22:18,-137.0,377.0,332.0
16:22:18,-137.0,377.0,332.0
16:22:18,-137.0,377.0,332.0
16:22:18,-250.0,376.0,331.0
16:22:18,-250.0,376.0,331.0
16:22:18,-250.0,376.0,331.0
16:22:18,-250.0,376.0,331.0
16:22:18,-257.0,378.0,332.0
16:22:18,-257.0,378.0,332.0
16:22:18,-257.0,378.0,332.0
16:22:18,-257.0,378.0,332.0
16:22:18,-267.0,377.0,331.0
16:22:18,-267.0,377.0,331.0
16:22:18,-267.0,377.0,331.0
16:22:18,-267.0,377.0,331.0
16:22:18,-323.0,377.0,331.0
16:22:18,-323.0,377.0,331.0
16:22:18,-323.0,377.0,331.0
16:22:18,-323.0,377.0,331.0
16:22:18,344.0,378.0,331.0
16:22:18,344.0,378.0,331.0
16:22:18,344.0,378.0,331.0
16:22:18,344.0,378.0,331.0
16:22:18,202.0,378.0,331.0
16:22:18,202.0,378.0,331.0
16:22:18,202.0,378.0,331.0
16:22:18,202.0,378.0,331.0
16:22:18,-353.0,378.0,332.0
16:22:18,-353.0,378.0,332.0
16:22:18,-353.0,378.0,332.0
16:22:18,-353.0,378.0,332.0
16:22:18,-273.0,378.0,333.0
16:22:18,-273.0,378.0,333.0
16:22:18,-273.0,378.0,333.0
16:22:18,-273.0,378.0,333.0
16:22:18,-261.0,377.0,333.0
16:22:18,-261.0,377.0,333.0
16:22:18,-261.0,377.0,333.0
16:22:18,-261.0,377.0,333.0
16:22:18,-222.0,379.0,332.0
16:22:18,-222.0,379.0,332.0
16:22:18,-222.0,379.0,332.0
16:22:18,-222.0,379.0,332.0
16:22:18,-200.0,378.0,333.0
16:22:18,-200.0,378.0,333.0
16:22:18,-200.0,378.0,333.0
16:22:18,-200.0,378.0,333.0
16:22:18,-175.0,378.0,332.0
16:22:18,-175.0,378.0,332.0
16:22:18,-175.0,378.0,332.0
16:22:18,-175.0,378.0,332.0
16:22:18,-103.0,378.0,332.0
16:22:18,-103.0,378.0,332.0
16:22:18,-103.0,378.0,332.0
16:22:18,-103.0,378.0,332.0
16:22:18,-8.0,379.0,333.0
16:22:18,-8.0,379.0,333.0
16:22:18,-8.0,379.0,333.0
16:22:18,-8.0,379.0,333.0
16:22:18,122.0,378.0,332.0
16:22:18,122.0,378.0,332.0
16:22:18,122.0,378.0,332.0
16:22:18,122.0,378.0,332.0
16:22:18,224.0,379.0,332.0
16:22:18,224.0,379.0,332.0
16:22:18,224.0,379.0,332.0
16:22:18,224.0,379.0,332.0
16:22:18,161.0,378.0,332.0
16:22:18,161.0,378.0,332.0
16:22:18,161.0,378.0,332.0
16:22:18,161.0,378.0,332.0
16:22:18,-38.0,378.0,333.0
16:22:18,-38.0,378.0,333.0
16:22:18,-38.0,378.0,333.0
16:22:18,-38.0,378.0,333.0
16:22:18,-240.0,378.0,332.0
16:22:18,-240.0,378.0,332.0
16:22:18,-240.0,378.0,332.0
16:22:18,-240.0,378.0,332.0
16:22:18,-351.0,377.0,332.0
16:22:18,-351.0,377.0,332.0
16:22:18,-351.0,377.0,332.0
16:22:18,-351.0,377.0,332.0
16:22:18,-358.0,377.0,333.0
16:22:18,-358.0,377.0,333.0
16:22:18,-358.0,377.0,333.0
16:22:18,-358.0,377.0,333.0
16:22:18,-371.0,378.0,331.0
16:22:18,-371.0,378.0,331.0
16:22:18,-371.0,378.0,331.0
16:22:18,-371.0,378.0,331.0
16:22:18,-366.0,377.0,333.0
16:22:18,-366.0,377.0,333.0
16:22:18,-366.0,377.0,333.0
16:22:18,-366.0,377.0,333.0
16:22:18,-353.0,378.0,332.0
16:22:18,-353.0,378.0,332.0
16:22:19,-353.0,378.0,332.0
16:22:19,-353.0,378.0,332.0
16:22:19,-323.0,378.0,331.0
16:22:19,-323.0,378.0,331.0
16:22:19,-323.0,378.0,331.0
16:22:19,-323.0,378.0,331.0
16:22:19,-302.0,377.0,331.0
16:22:19,-302.0,377.0,331.0
16:22:19,-302.0,377.0,331.0
16:22:19,-302.0,377.0,331.0
16:22:19,-284.0,377.0,331.0
16:22:19,-284.0,377.0,331.0
16:22:19,-284.0,377.0,331.0
16:22:19,-284.0,377.0,331.0
16:22:19,-276.0,377.0,331.0
16:22:19,-276.0,377.0,331.0
16:22:19,-276.0,377.0,331.0
16:22:19,-276.0,377.0,331.0
16:22:19,-291.0,378.0,331.0
16:22:19,-291.0,378.0,331.0
16:22:19,-291.0,378.0,331.0
16:22:19,-291.0,378.0,331.0
16:22:19,-276.0,376.0,332.0
16:22:19,-276.0,376.0,332.0
16:22:19,-276.0,376.0,332.0
16:22:19,-276.0,376.0,332.0
16:22:19,-299.0,377.0,331.0
16:22:19,-299.0,377.0,331.0
16:22:19,-299.0,377.0,331.0
16:22:19,-299.0,377.0,331.0
16:22:19,-311.0,378.0,331.0
16:22:19,-311.0,378.0,331.0
16:22:19,-311.0,378.0,331.0
16:22:19,-311.0,378.0,331.0
16:22:19,-301.0,378.0,331.0
16:22:19,-301.0,378.0,331.0
16:22:19,-301.0,378.0,331.0
16:22:19,-301.0,378.0,331.0
16:22:19,-301.0,377.0,331.0
16:22:19,-301.0,377.0,331.0
16:22:19,-301.0,377.0,331.0
16:22:19,-301.0,377.0,331.0
16:22:19,-307.0,377.0,330.0
16:22:19,-307.0,377.0,330.0
16:22:19,-307.0,377.0,330.0
16:22:19,-307.0,377.0,330.0
16:22:19,-300.0,377.0,332.0
16:22:19,-300.0,377.0,332.0
16:22:19,-300.0,377.0,332.0
16:22:19,-300.0,377.0,332.0
16:22:19,-303.0,378.0,333.0
16:22:19,-303.0,378.0,333.0
16:22:19,-303.0,378.0,333.0
16:22:19,-303.0,378.0,333.0
16:22:19,-285.0,376.0,331.0
16:22:19,-285.0,376.0,331.0
16:22:19,-285.0,376.0,331.0
16:22:19,-285.0,376.0,331.0
16:22:19,-296.0,377.0,330.0
16:22:19,-296.0,377.0,330.0
16:22:19,-296.0,377.0,330.0
16:22:19,-296.0,377.0,330.0
16:22:19,-284.0,378.0,332.0
16:22:19,-284.0,378.0,332.0
16:22:19,-284.0,378.0,332.0
16:22:19,-284.0,378.0,332.0
16:22:19,-271.0,378.0,331.0
16:22:19,-271.0,378.0,331.0
16:22:19,-271.0,378.0,331.0
16:22:19,-271.0,378.0,331.0
16:22:19,-193.0,379.0,331.0
16:22:19,-193.0,379.0,331.0
16:22:19,-193.0,379.0,331.0
16:22:19,-193.0,379.0,331.0
16:22:19,-239.0,378.0,333.0
16:22:19,-239.0,378.0,333.0
16:22:19,-239.0,378.0,333.0
16:22:19,-239.0,378.0,333.0
16:22:19,-331.0,376.0,333.0
16:22:19,-331.0,376.0,333.0
16:22:19,-331.0,376.0,333.0
16:22:19,-331.0,376.0,333.0
16:22:19,-338.0,377.0,333.0
16:22:19,-338.0,377.0,333.0
16:22:19,-338.0,377.0,333.0
16:22:19,-338.0,377.0,333.0
16:22:19,-332.0,378.0,333.0
16:22:19,-332.0,378.0,333.0
16:22:19,-332.0,378.0,333.0
16:22:19,-332.0,378.0,333.0
16:22:19,-183.0,380.0,332.0
16:22:19,-183.0,380.0,332.0
16:22:19,-183.0,380.0,332.0
16:22:19,-183.0,380.0,332.0
16:22:19,399.0,378.0,332.0
16:22:19,399.0,378.0,332.0
16:22:19,399.0,378.0,332.0
16:22:19,399.0,378.0,332.0
16:22:19,-265.0,378.0,333.0
16:22:19,-265.0,378.0,333.0
16:22:19,-265.0,378.0,333.0
16:22:19,-265.0,378.0,333.0
16:22:19,-380.0,379.0,333.0
16:22:19,-380.0,379.0,333.0
16:22:19,-380.0,379.0,333.0
16:22:19,-380.0,379.0,333.0
16:22:19,-396.0,378.0,333.0
16:22:19,-396.0,378.0,333.0
16:22:19,-396.0,378.0,333.0
16:22:19,-396.0,378.0,333.0
16:22:19,-359.0,377.0,333.0
16:22:19,-359.0,377.0,333.0
16:22:19,-359.0,377.0,333.0
16:22:19,-359.0,377.0,333.0
16:22:19,-332.0,379.0,333.0
16:22:19,-332.0,379.0,333.0
16:22:19,-332.0,379.0,333.0
16:22:19,-332.0,379.0,333.0
16:22:19,-322.0,379.0,331.0
16:22:19,-322.0,379.0,331.0
16:22:19,-322.0,379.0,331.0
16:22:19,-322.0,379.0,331.0
16:22:19,-274.0,378.0,332.0
16:22:19,-274.0,378.0,332.0
16:22:19,-274.0,378.0,332.0
16:22:19,-274.0,378.0,332.0
16:22:19,-201.0,379.0,332.0
16:22:19,-201.0,379.0,332.0
16:22:19,-201.0,379.0,332.0
16:22:19,-201.0,379.0,332.0
16:22:19,-95.0,378.0,334.0
16:22:19,-95.0,378.0,334.0
16:22:19,-95.0,378.0,334.0
16:22:19,-95.0,378.0,334.0
16:22:19,13.0,378.0,332.0
16:22:19,13.0,378.0,332.0
16:22:19,13.0,378.0,332.0
16:22:19,13.0,378.0,332.0
16:22:19,58.0,378.0,332.0
16:22:19,58.0,378.0,332.0
16:22:19,58.0,378.0,332.0
16:22:19,58.0,378.0,332.0
16:22:19,-69.0,379.0,333.0
16:22:19,-69.0,379.0,333.0
16:22:19,-69.0,379.0,333.0
16:22:19,-69.0,379.0,333.0
16:22:19,-290.0,378.0,333.0
16:22:19,-290.0,378.0,333.0
16:22:19,-290.0,378.0,333.0
16:22:19,-290.0,378.0,333.0
16:22:19,-459.0,379.0,333.0
16:22:19,-459.0,379.0,333.0
16:22:19,-459.0,379.0,333.0
16:22:19,-459.0,379.0,333.0
16:22:19,-516.0,377.0,332.0
16:22:19,-516.0,377.0,332.0
16:22:19,-516.0,377.0,332.0
16:22:19,-516.0,377.0,332.0
16:22:19,-525.0,378.0,333.0
16:22:19,-525.0,378.0,333.0
16:22:19,-525.0,378.0,333.0
16:22:19,-525.0,378.0,333.0
16:22:19,-526.0,377.0,332.0
16:22:19,-526.0,377.0,332.0
16:22:19,-526.0,377.0,332.0
16:22:19,-526.0,377.0,332.0
16:22:19,-528.0,376.0,334.0
16:22:19,-528.0,376.0,334.0
16:22:19,-528.0,376.0,334.0
16:22:19,-528.0,376.0,334.0
16:22:19,-510.0,378.0,332.0
16:22:19,-510.0,378.0,332.0
16:22:19,-510.0,378.0,332.0
16:22:19,-510.0,378.0,332.0
16:22:19,-490.0,379.0,332.0
16:22:19,-490.0,379.0,332.0
16:22:19,-490.0,379.0,332.0
16:22:19,-490.0,379.0,332.0
16:22:19,-476.0,377.0,332.0
16:22:19,-476.0,377.0,332.0
16:22:19,-476.0,377.0,332.0
16:22:19,-476.0,377.0,332.0
16:22:19,-484.0,377.0,332.0
16:22:19,-484.0,377.0,332.0
16:22:19,-484.0,377.0,332.0
16:22:19,-484.0,377.0,332.0
16:22:19,-506.0,378.0,332.0
16:22:19,-506.0,378.0,332.0
16:22:19,-506.0,378.0,332.0
16:22:19,-506.0,378.0,332.0
16:22:19,-469.0,377.0,331.0
16:22:19,-469.0,377.0,331.0
16:22:19,-469.0,377.0,331.0
16:22:19,-469.0,377.0,331.0
16:22:19,-500.0,377.0,332.0
16:22:19,-500.0,377.0,332.0
16:22:19,-500.0,377.0,332.0
16:22:19,-500.0,377.0,332.0
16:22:19,-518.0,376.0,332.0
16:22:19,-518.0,376.0,332.0
16:22:19,-518.0,376.0,332.0
16:22:20,-518.0,376.0,332.0
16:22:20,-510.0,378.0,331.0
16:22:20,-510.0,378.0,331.0
16:22:20,-510.0,378.0,331.0
16:22:20,-510.0,378.0,331.0
16:22:20,-504.0,377.0,331.0
16:22:20,-504.0,377.0,331.0
16:22:20,-504.0,377.0,331.0
16:22:20,-504.0,377.0,331.0
16:22:20,-504.0,377.0,332.0
16:22:20,-504.0,377.0,332.0
16:22:20,-504.0,377.0,332.0
16:22:20,-504.0,377.0,332.0
16:22:20,-514.0,378.0,331.0
16:22:20,-514.0,378.0,331.0
16:22:20,-514.0,378.0,331.0
16:22:20,-514.0,378.0,331.0
16:22:20,-531.0,377.0,333.0
16:22:20,-531.0,377.0,333.0
16:22:20,-531.0,377.0,333.0
16:22:20,-531.0,377.0,333.0
16:22:20,-521.0,378.0,332.0
16:22:20,-521.0,378.0,332.0
16:22:20,-521.0,378.0,332.0
16:22:20,-521.0,378.0,332.0
16:22:20,-529.0,379.0,332.0
16:22:20,-529.0,379.0,332.0
16:22:20,-529.0,379.0,332.0
16:22:20,-529.0,379.0,332.0
16:22:20,-505.0,377.0,332.0
16:22:20,-505.0,377.0,332.0
16:22:20,-505.0,377.0,332.0
16:22:20,-505.0,377.0,332.0
16:22:20,-510.0,377.0,332.0
16:22:20,-510.0,377.0,332.0
16:22:20,-510.0,377.0,332.0
16:22:20,-510.0,377.0,332.0
16:22:20,-517.0,379.0,332.0
16:22:20,-517.0,379.0,332.0
16:22:20,-517.0,379.0,332.0
16:22:20,-517.0,379.0,332.0
16:22:20,-504.0,377.0,333.0
16:22:20,-504.0,377.0,333.0
16:22:20,-504.0,377.0,333.0
16:22:20,-504.0,377.0,333.0
16:22:20,-516.0,378.0,332.0
16:22:20,-516.0,378.0,332.0
16:22:20,-516.0,378.0,332.0
16:22:20,-516.0,378.0,332.0
16:22:20,-484.0,379.0,331.0
16:22:20,-484.0,379.0,331.0
16:22:20,-484.0,379.0,331.0
16:22:20,-484.0,379.0,331.0
16:22:20,-417.0,379.0,331.0
16:22:20,-417.0,379.0,331.0
16:22:20,-417.0,379.0,331.0
16:22:20,-417.0,379.0,331.0
16:22:20,-471.0,378.0,331.0
16:22:20,-471.0,378.0,331.0
16:22:20,-471.0,378.0,331.0
16:22:20,-471.0,378.0,331.0
16:22:20,-572.0,379.0,332.0
16:22:20,-572.0,379.0,332.0
16:22:20,-572.0,379.0,332.0
16:22:20,-572.0,379.0,332.0
16:22:20,-589.0,379.0,332.0
16:22:20,-589.0,379.0,332.0
16:22:20,-589.0,379.0,332.0
16:22:20,-589.0,379.0,332.0
16:22:20,-562.0,379.0,333.0
16:22:20,-562.0,379.0,333.0
16:22:20,-562.0,379.0,333.0
16:22:20,-562.0,379.0,333.0
16:22:20,-347.0,379.0,332.0
16:22:20,-347.0,379.0,332.0
16:22:20,-347.0,379.0,332.0
16:22:20,-347.0,379.0,332.0
16:22:20,200.0,378.0,332.0
16:22:20,200.0,378.0,332.0
16:22:20,200.0,378.0,332.0
16:22:20,200.0,378.0,332.0
16:22:20,-479.0,378.0,334.0
16:22:20,-479.0,378.0,334.0
16:22:20,-479.0,378.0,334.0
16:22:20,-479.0,378.0,334.0
16:22:20,-600.0,377.0,332.0
16:22:20,-600.0,377.0,332.0
16:22:20,-600.0,377.0,332.0
16:22:20,-600.0,377.0,332.0
16:22:20,-601.0,378.0,333.0
16:22:20,-601.0,378.0,333.0
16:22:20,-601.0,378.0,333.0
16:22:20,-601.0,378.0,333.0
16:22:20,-571.0,379.0,333.0
16:22:20,-571.0,379.0,333.0
16:22:20,-571.0,379.0,333.0
16:22:20,-571.0,379.0,333.0
16:22:20,-548.0,378.0,332.0
16:22:20,-548.0,378.0,332.0
16:22:20,-548.0,378.0,332.0
16:22:20,-548.0,378.0,332.0
16:22:20,-494.0,379.0,333.0
16:22:20,-494.0,379.0,333.0
16:22:20,-494.0,379.0,333.0
16:22:20,-494.0,379.0,333.0
16:22:20,-465.0,378.0,334.0
16:22:20,-465.0,378.0,334.0
16:22:20,-465.0,378.0,334.0
16:22:20,-465.0,378.0,334.0
16:22:20,-400.0,378.0,334.0
16:22:20,-400.0,378.0,334.0
16:22:20,-400.0,378.0,334.0
16:22:20,-400.0,378.0,334.0
16:22:20,-278.0,378.0,332.0
16:22:20,-278.0,378.0,332.0
16:22:20,-278.0,378.0,332.0
16:22:20,-278.0,378.0,332.0
16:22:20,-164.0,377.0,333.0
16:22:20,-164.0,377.0,333.0
16:22:20,-164.0,377.0,333.0
16:22:20,-164.0,377.0,333.0
16:22:20,-152.0,378.0,332.0
16:22:20,-152.0,378.0,332.0
16:22:20,-152.0,378.0,332.0
16:22:20,-152.0,378.0,332.0
16:22:20,-257.0,378.0,331.0
16:22:20,-257.0,378.0,331.0
16:22:20,-257.0,378.0,331.0
16:22:20,-257.0,378.0,331.0
16:22:20,-495.0,377.0,332.0
16:22:20,-495.0,377.0,332.0
16:22:20,-495.0,377.0,332.0
16:22:20,-495.0,377.0,332.0
16:22:20,-686.0,378.0,331.0
16:22:20,-686.0,378.0,331.0
16:22:20,-686.0,378.0,331.0
16:22:20,-686.0,378.0,331.0
16:22:20,-716.0,377.0,332.0
16:22:20,-716.0,377.0,332.0
16:22:20,-716.0,377.0,332.0
16:22:20,-716.0,377.0,332.0
16:22:20,-707.0,377.0,332.0
16:22:20,-707.0,377.0,332.0
16:22:20,-707.0,377.0,332.0
16:22:20,-707.0,377.0,332.0
16:22:20,-726.0,376.0,332.0
16:22:20,-726.0,376.0,332.0
16:22:20,-726.0,376.0,332.0
16:22:20,-726.0,376.0,332.0
16:22:20,-702.0,377.0,333.0
16:22:20,-702.0,377.0,333.0
16:22:20,-702.0,377.0,333.0
16:22:20,-702.0,377.0,333.0
16:22:20,-682.0,377.0,332.0
16:22:20,-682.0,377.0,332.0
16:22:20,-682.0,377.0,332.0
16:22:20,-682.0,377.0,332.0
16:22:20,-681.0,378.0,333.0
16:22:20,-681.0,378.0,333.0
16:22:20,-681.0,378.0,333.0
16:22:20,-681.0,378.0,333.0
16:22:20,-648.0,377.0,333.0
16:22:20,-648.0,377.0,333.0
16:22:20,-648.0,377.0,333.0
16:22:20,-648.0,377.0,333.0
16:22:20,-648.0,377.0,332.0
16:22:20,-648.0,377.0,332.0
16:22:20,-648.0,377.0,332.0
16:22:20,-648.0,377.0,332.0
16:22:20,-637.0,379.0,332.0
16:22:20,-637.0,379.0,332.0
16:22:20,-637.0,379.0,332.0
16:22:20,-637.0,379.0,332.0
16:22:20,-638.0,378.0,333.0
16:22:20,-638.0,378.0,333.0
16:22:20,-638.0,378.0,333.0
16:22:20,-638.0,378.0,333.0
16:22:20,-649.0,378.0,333.0
16:22:20,-649.0,378.0,333.0
16:22:20,-649.0,378.0,333.0
16:22:20,-649.0,378.0,333.0
16:22:20,-641.0,379.0,333.0
16:22:20,-641.0,379.0,333.0
16:22:20,-641.0,379.0,333.0
16:22:20,-641.0,379.0,333.0
16:22:20,-641.0,378.0,334.0
16:22:20,-641.0,378.0,334.0
16:22:20,-641.0,378.0,334.0
16:22:20,-641.0,378.0,334.0
16:22:20,-648.0,378.0,332.0
16:22:20,-648.0,378.0,332.0
16:22:20,-648.0,378.0,332.0
16:22:20,-648.0,378.0,332.0
16:22:20,-629.0,377.0,333.0
16:22:20,-629.0,377.0,333.0
16:22:20,-629.0,377.0,333.0
16:22:20,-629.0,377.0,333.0
16:22:20,-636.0,378.0,334.0
16:22:20,-636.0,378.0,334.0
16:22:20,-636.0,378.0,334.0
16:22:21,-636.0,378.0,334.0
16:22:21,-616.0,379.0,333.0
16:22:21,-616.0,379.0,333.0
16:22:21,-616.0,379.0,333.0
16:22:21,-616.0,379.0,333.0
16:22:21,-620.0,378.0,332.0
16:22:21,-620.0,378.0,332.0
16:22:21,-620.0,378.0,332.0
16:22:21,-620.0,378.0,332.0
16:22:21,-612.0,379.0,332.0
16:22:21,-612.0,379.0,332.0
16:22:21,-612.0,379.0,332.0
16:22:21,-612.0,379.0,332.0
16:22:21,-614.0,378.0,334.0
16:22:21,-614.0,378.0,334.0
16:22:21,-614.0,378.0,334.0
16:22:21,-614.0,378.0,334.0
16:22:21,-583.0,379.0,333.0
16:22:21,-583.0,379.0,333.0
16:22:21,-583.0,379.0,333.0
16:22:21,-583.0,379.0,333.0
16:22:21,-575.0,380.0,331.0
16:22:21,-575.0,380.0,331.0
16:22:21,-575.0,380.0,331.0
16:22:21,-575.0,380.0,331.0
16:22:21,-486.0,379.0,333.0
16:22:21,-486.0,379.0,333.0
16:22:21,-486.0,379.0,333.0
16:22:21,-486.0,379.0,333.0
16:22:21,-539.0,378.0,333.0
16:22:21,-539.0,378.0,333.0
16:22:21,-539.0,378.0,333.0
16:22:21,-539.0,378.0,333.0
16:22:21,-602.0,377.0,332.0
16:22:21,-602.0,377.0,332.0
16:22:21,-602.0,377.0,332.0
16:22:21,-602.0,377.0,332.0
16:22:21,-626.0,377.0,333.0
16:22:21,-626.0,377.0,333.0
16:22:21,-626.0,377.0,333.0
16:22:21,-626.0,377.0,333.0
16:22:21,-602.0,378.0,333.0
16:22:21,-602.0,378.0,333.0
16:22:21,-602.0,378.0,333.0
16:22:21,-602.0,378.0,333.0
16:22:21,-343.0,378.0,332.0
16:22:21,-343.0,378.0,332.0
16:22:21,-343.0,378.0,332.0
16:22:21,-343.0,378.0,332.0
16:22:21,66.0,378.0,332.0
16:22:21,66.0,378.0,332.0
16:22:21,66.0,378.0,332.0
16:22:21,66.0,378.0,332.0
16:22:21,-619.0,377.0,333.0
16:22:21,-619.0,377.0,333.0
16:22:21,-619.0,377.0,333.0
16:22:21,-619.0,377.0,333.0
16:22:21,-612.0,378.0,332.0
16:22:21,-612.0,378.0,332.0
16:22:21,-612.0,378.0,332.0
16:22:21,-612.0,378.0,332.0
16:22:21,-604.0,378.0,333.0
16:22:21,-604.0,378.0,333.0
16:22:21,-604.0,378.0,333.0
16:22:21,-604.0,378.0,333.0
16:22:21,-559.0,377.0,333.0
16:22:21,-559.0,377.0,333.0
16:22:21,-559.0,377.0,333.0
16:22:21,-559.0,377.0,333.0
16:22:21,-533.0,378.0,332.0
16:22:21,-533.0,378.0,332.0
16:22:21,-533.0,378.0,332.0
16:22:21,-533.0,378.0,332.0
16:22:21,-495.0,376.0,331.0
16:22:21,-495.0,376.0,331.0
16:22:21,-495.0,376.0,331.0
16:22:21,-495.0,376.0,331.0
16:22:21,-439.0,378.0,332.0
16:22:21,-439.0,378.0,332.0
16:22:21,-439.0,378.0,332.0
16:22:21,-439.0,378.0,332.0
16:22:21,-351.0,378.0,331.0
16:22:21,-351.0,378.0,331.0
16:22:21,-351.0,378.0,331.0
16:22:21,-351.0,378.0,331.0
16:22:21,-243.0,379.0,332.0
16:22:21,-243.0,379.0,332.0
16:22:21,-243.0,379.0,332.0
16:22:21,-243.0,379.0,332.0
16:22:21,-94.0,378.0,332.0
16:22:21,-94.0,378.0,332.0
16:22:21,-94.0,378.0,332.0
16:22:21,-94.0,378.0,332.0
16:22:21,-100.0,377.0,333.0
16:22:21,-100.0,377.0,333.0
16:22:21,-100.0,377.0,333.0
16:22:21,-100.0,377.0,333.0
16:22:21,-266.0,378.0,333.0
16:22:21,-266.0,378.0,333.0
16:22:21,-266.0,378.0,333.0
16:22:21,-266.0,378.0,333.0
16:22:21,-453.0,379.0,333.0
16:22:21,-453.0,379.0,333.0
16:22:21,-453.0,379.0,333.0
16:22:21,-453.0,379.0,333.0
16:22:21,-621.0,377.0,333.0
16:22:21,-621.0,377.0,333.0
16:22:21,-621.0,377.0,333.0
16:22:21,-621.0,377.0,333.0
16:22:21,-649.0,378.0,333.0
16:22:21,-649.0,378.0,333.0
16:22:21,-649.0,378.0,333.0
16:22:21,-649.0,378.0,333.0
16:22:21,-654.0,379.0,332.0
16:22:21,-654.0,379.0,332.0
16:22:21,-654.0,379.0,332.0
16:22:21,-654.0,379.0,332.0
16:22:21,-638.0,380.0,332.0
16:22:21,-638.0,380.0,332.0
16:22:21,-638.0,380.0,332.0
16:22:21,-638.0,380.0,332.0
16:22:21,-618.0,379.0,333.0
16:22:21,-618.0,379.0,333.0
16:22:21,-618.0,379.0,333.0
16:22:21,-618.0,379.0,333.0
16:22:21,-591.0,379.0,332.0
16:22:21,-591.0,379.0,332.0
16:22:21,-591.0,379.0,332.0
16:22:21,-591.0,379.0,332.0
16:22:21,-577.0,379.0,332.0
16:22:21,-577.0,379.0,332.0
16:22:21,-577.0,379.0,332.0
16:22:21,-577.0,379.0,332.0
16:22:21,-549.0,379.0,333.0
16:22:21,-549.0,379.0,333.0
16:22:21,-549.0,379.0,333.0
16:22:21,-549.0,379.0,333.0
16:22:21,-537.0,378.0,334.0
16:22:21,-537.0,378.0,334.0
16:22:21,-537.0,378.0,334.0
16:22:21,-537.0,378.0,334.0
16:22:21,-540.0,378.0,333.0
16:22:21,-540.0,378.0,333.0
16:22:21,-540.0,378.0,333.0
16:22:21,-540.0,378.0,333.0
16:22:21,-548.0,378.0,334.0
16:22:21,-548.0,378.0,334.0
16:22:21,-548.0,378.0,334.0
16:22:21,-548.0,378.0,334.0
16:22:21,-539.0,378.0,331.0
16:22:21,-539.0,378.0,331.0
16:22:21,-539.0,378.0,331.0
16:22:21,-539.0,378.0,331.0
16:22:21,-518.0,378.0,333.0
16:22:21,-518.0,378.0,333.0
16:22:21,-518.0,378.0,333.0
16:22:21,-518.0,378.0,333.0
16:22:21,-525.0,378.0,333.0
16:22:21,-525.0,378.0,333.0
16:22:21,-525.0,378.0,333.0
16:22:21,-525.0,378.0,333.0
16:22:21,-530.0,378.0,333.0
16:22:21,-530.0,378.0,333.0
16:22:21,-530.0,378.0,333.0
16:22:21,-530.0,378.0,333.0
16:22:21,-516.0,378.0,333.0
16:22:21,-516.0,378.0,333.0
16:22:21,-516.0,378.0,333.0
16:22:21,-516.0,378.0,333.0
16:22:21,-485.0,378.0,332.0
16:22:21,-485.0,378.0,332.0
16:22:21,-485.0,378.0,332.0
16:22:21,-485.0,378.0,332.0
16:22:21,-502.0,378.0,331.0
16:22:21,-502.0,378.0,331.0
16:22:21,-502.0,378.0,331.0
16:22:21,-502.0,378.0,331.0
16:22:21,-446.0,377.0,333.0
16:22:21,-446.0,377.0,333.0
16:22:21,-446.0,377.0,333.0
16:22:21,-446.0,377.0,333.0
16:22:21,-381.0,378.0,332.0
16:22:21,-381.0,378.0,332.0
16:22:21,-381.0,378.0,332.0
16:22:21,-381.0,378.0,332.0
16:22:21,-367.0,377.0,332.0
16:22:21,-367.0,377.0,332.0
16:22:21,-367.0,377.0,332.0
16:22:21,-367.0,377.0,332.0
16:22:21,-443.0,378.0,332.0
16:22:21,-443.0,378.0,332.0
16:22:21,-443.0,378.0,332.0
16:22:21,-443.0,378.0,332.0
16:22:21,-488.0,377.0,331.0
16:22:21,-488.0,377.0,331.0
16:22:21,-488.0,377.0,331.0
16:22:21,-488.0,377.0,331.0
16:22:21,-464.0,377.0,331.0
16:22:21,-464.0,377.0,331.0
16:22:21,-464.0,377.0,331.0
16:22:21,-464.0,377.0,331.0
16:22:22,-551.0,379.0,332.0
16:22:22,-551.0,379.0,332.0
16:22:22,-551.0,379.0,332.0
16:22:22,-551.0,379.0,332.0
16:22:22,342.0,378.0,333.0
16:22:22,342.0,378.0,333.0
16:22:22,342.0,378.0,333.0
16:22:22,342.0,378.0,333.0
16:22:22,-119.0,378.0,333.0
16:22:22,-119.0,378.0,333.0
16:22:22,-119.0,378.0,333.0
16:22:22,-119.0,378.0,333.0
16:22:22,-510.0,378.0,332.0
16:22:22,-510.0,378.0,332.0
16:22:22,-510.0,378.0,332.0
16:22:22,-510.0,378.0,332.0
16:22:22,-443.0,378.0,333.0
16:22:22,-443.0,378.0,333.0
16:22:22,-443.0,378.0,333.0
16:22:22,-443.0,378.0,333.0
16:22:22,-394.0,377.0,332.0
16:22:22,-394.0,377.0,332.0
16:22:22,-394.0,377.0,332.0
16:22:22,-394.0,377.0,332.0
16:22:22,-373.0,378.0,332.0
16:22:22,-373.0,378.0,332.0
16:22:22,-373.0,378.0,332.0
16:22:22,-373.0,378.0,332.0
16:22:22,-317.0,378.0,333.0
16:22:22,-317.0,378.0,333.0
16:22:22,-317.0,378.0,333.0
16:22:22,-317.0,378.0,333.0
16:22:22,-284.0,378.0,333.0
16:22:22,-284.0,378.0,333.0
16:22:22,-284.0,378.0,333.0
16:22:22,-284.0,378.0,333.0
16:22:22,-235.0,379.0,332.0
16:22:22,-235.0,379.0,332.0
16:22:22,-235.0,379.0,332.0
16:22:22,-235.0,379.0,332.0
16:22:22,-136.0,379.0,332.0
16:22:22,-136.0,379.0,332.0
16:22:22,-136.0,379.0,332.0
16:22:22,-136.0,379.0,332.0
16:22:22,40.0,379.0,332.0
16:22:22,40.0,379.0,332.0
16:22:22,40.0,379.0,332.0
16:22:22,40.0,379.0,332.0
16:22:22,117.0,377.0,333.0
16:22:22,117.0,377.0,333.0
16:22:22,117.0,377.0,333.0
16:22:22,117.0,377.0,333.0
16:22:22,45.0,378.0,333.0
16:22:22,45.0,378.0,333.0
16:22:22,45.0,378.0,333.0
16:22:22,45.0,378.0,333.0
16:22:22,-149.0,377.0,331.0
16:22:22,-149.0,377.0,331.0
16:22:22,-149.0,377.0,331.0
16:22:22,-149.0,377.0,331.0
16:22:22,-344.0,378.0,333.0
16:22:22,-344.0,378.0,333.0
16:22:22,-344.0,378.0,333.0
16:22:22,-344.0,378.0,333.0
16:22:22,-451.0,378.0,332.0
16:22:22,-451.0,378.0,332.0
16:22:22,-451.0,378.0,332.0
16:22:22,-451.0,378.0,332.0
16:22:22,-477.0,377.0,332.0
16:22:22,-477.0,377.0,332.0
16:22:22,-477.0,377.0,332.0
16:22:22,-477.0,377.0,332.0
16:22:22,-451.0,378.0,331.0
16:22:22,-451.0,378.0,331.0
16:22:22,-451.0,378.0,331.0
16:22:22,-451.0,378.0,331.0
16:22:22,-447.0,378.0,333.0
16:22:22,-447.0,378.0,333.0
16:22:22,-447.0,378.0,333.0
16:22:22,-447.0,378.0,333.0
16:22:22,-414.0,378.0,333.0
16:22:22,-414.0,378.0,333.0
16:22:22,-414.0,378.0,333.0
16:22:22,-414.0,378.0,333.0
16:22:22,-397.0,379.0,332.0
16:22:22,-397.0,379.0,332.0
16:22:22,-397.0,379.0,332.0
16:22:22,-397.0,379.0,332.0
16:22:22,-380.0,378.0,332.0
16:22:22,-380.0,378.0,332.0
16:22:22,-380.0,378.0,332.0
16:22:22,-380.0,378.0,332.0
16:22:22,-350.0,378.0,333.0
16:22:22,-350.0,378.0,333.0
16:22:22,-350.0,378.0,333.0
16:22:22,-350.0,378.0,333.0
16:22:22,-341.0,378.0,333.0
16:22:22,-341.0,378.0,333.0
16:22:22,-341.0,378.0,333.0
16:22:22,-341.0,378.0,333.0
16:22:22,-333.0,378.0,332.0
16:22:22,-333.0,378.0,332.0
16:22:22,-333.0,378.0,332.0
16:22:22,-333.0,378.0,332.0
16:22:22,-323.0,378.0,332.0
16:22:22,-323.0,378.0,332.0
16:22:22,-323.0,378.0,332.0
16:22:22,-323.0,378.0,332.0
16:22:22,-335.0,380.0,333.0
16:22:22,-335.0,380.0,333.0
16:22:22,-335.0,380.0,333.0
16:22:22,-335.0,380.0,333.0
16:22:22,-322.0,379.0,332.0
16:22:22,-322.0,379.0,332.0
16:22:22,-322.0,379.0,332.0
16:22:22,-322.0,379.0,332.0
16:22:22,-342.0,378.0,332.0
16:22:22,-342.0,378.0,332.0
16:22:22,-342.0,378.0,332.0
16:22:22,-342.0,378.0,332.0
16:22:22,-298.0,379.0,333.0
16:22:22,-298.0,379.0,333.0
16:22:22,-298.0,379.0,333.0
16:22:22,-298.0,379.0,333.0
16:22:22,-311.0,377.0,333.0
16:22:22,-311.0,377.0,333.0
16:22:22,-311.0,377.0,333.0
16:22:22,-311.0,377.0,333.0
16:22:22,-290.0,378.0,332.0
16:22:22,-290.0,378.0,332.0
16:22:22,-290.0,378.0,332.0
16:22:22,-290.0,378.0,332.0
16:22:22,-266.0,378.0,332.0
16:22:22,-266.0,378.0,332.0
16:22:22,-266.0,378.0,332.0
16:22:22,-266.0,378.0,332.0
16:22:22,-229.0,378.0,333.0
16:22:22,-229.0,378.0,333.0
16:22:22,-229.0,378.0,333.0
16:22:22,-229.0,378.0,333.0
16:22:22,-172.0,378.0,333.0
16:22:22,-172.0,378.0,333.0
16:22:22,-172.0,378.0,333.0
16:22:22,-172.0,378.0,333.0
16:22:22,-238.0,378.0,332.0
16:22:22,-238.0,378.0,332.0
16:22:22,-238.0,378.0,332.0
16:22:22,-238.0,378.0,332.0
16:22:22,-286.0,378.0,334.0
16:22:22,-286.0,378.0,334.0
16:22:22,-286.0,378.0,334.0
16:22:22,-286.0,378.0,334.0
16:22:22,-304.0,378.0,331.0
16:22:22,-304.0,378.0,331.0
16:22:22,-304.0,378.0,331.0
16:22:22,-304.0,378.0,331.0
16:22:22,-299.0,379.0,331.0
16:22:22,-299.0,379.0,331.0
16:22:22,-299.0,379.0,331.0
16:22:22,-299.0,379.0,331.0
16:22:22,27.0,379.0,332.0
16:22:22,27.0,379.0,332.0
16:22:22,27.0,379.0,332.0
16:22:22,27.0,379.0,332.0
16:22:22,373.0,377.0,333.0
16:22:22,373.0,377.0,333.0
16:22:22,373.0,377.0,333.0
16:22:22,373.0,377.0,333.0
16:22:22,-301.0,379.0,332.0
16:22:22,-301.0,379.0,332.0
16:22:22,-301.0,379.0,332.0
16:22:22,-301.0,379.0,332.0
16:22:22,-282.0,378.0,333.0
16:22:22,-282.0,378.0,333.0
16:22:22,-282.0,378.0,333.0
16:22:22,-282.0,378.0,333.0
16:22:22,-262.0,377.0,333.0
16:22:22,-262.0,377.0,333.0
16:22:22,-262.0,377.0,333.0
16:22:22,-262.0,377.0,333.0
16:22:22,-229.0,378.0,333.0
16:22:22,-229.0,378.0,333.0
16:22:22,-229.0,378.0,333.0
16:22:22,-229.0,378.0,333.0
16:22:22,-197.0,378.0,333.0
16:22:22,-197.0,378.0,333.0
16:22:22,-197.0,378.0,333.0
16:22:22,-197.0,378.0,333.0
16:22:22,-164.0,379.0,332.0
16:22:22,-164.0,379.0,332.0
16:22:22,-164.0,379.0,332.0
16:22:22,-164.0,379.0,332.0
16:22:22,-109.0,379.0,332.0
16:22:22,-109.0,379.0,332.0
16:22:22,-109.0,379.0,332.0
16:22:22,-109.0,379.0,332.0
16:22:22,-40.0,377.0,332.0
16:22:22,-40.0,377.0,332.0
16:22:22,-40.0,377.0,332.0
16:22:22,-40.0,377.0,332.0
16:22:22,108.0,377.0,334.0
16:22:23,108.0,377.0,334.0
16:22:23,108.0,377.0,334.0
16:22:23,108.0,377.0,334.0
16:22:23,216.0,380.0,332.0
16:22:23,216.0,380.0,332.0
16:22:23,216.0,380.0,332.0
16:22:23,216.0,380.0,332.0
16:22:23,211.0,378.0,333.0
16:22:23,211.0,378.0,333.0
16:22:23,211.0,378.0,333.0
16:22:23,211.0,378.0,333.0
16:22:23,68.0,378.0,333.0
16:22:23,68.0,378.0,333.0
16:22:23,68.0,378.0,333.0
16:22:23,68.0,378.0,333.0
16:22:23,-152.0,379.0,333.0
16:22:23,-152.0,379.0,333.0
16:22:23,-152.0,379.0,333.0
16:22:23,-152.0,379.0,333.0
16:22:23,-308.0,379.0,333.0
16:22:23,-308.0,379.0,333.0
16:22:23,-308.0,379.0,333.0
16:22:23,-308.0,379.0,333.0
16:22:23,-345.0,379.0,331.0
16:22:23,-345.0,379.0,331.0
16:22:23,-345.0,379.0,331.0
16:22:23,-345.0,379.0,331.0
16:22:23,-367.0,379.0,332.0
16:22:23,-367.0,379.0,332.0
16:22:23,-367.0,379.0,332.0
16:22:23,-367.0,379.0,332.0
16:22:23,-338.0,379.0,332.0
16:22:23,-338.0,379.0,332.0
16:22:23,-338.0,379.0,332.0
16:22:23,-338.0,379.0,332.0
16:22:23,-316.0,378.0,334.0
16:22:23,-316.0,378.0,334.0
16:22:23,-316.0,378.0,334.0
16:22:23,-316.0,378.0,334.0
16:22:23,-312.0,378.0,333.0
16:22:23,-312.0,378.0,333.0
16:22:23,-312.0,378.0,333.0
16:22:23,-312.0,378.0,333.0
16:22:23,-286.0,377.0,333.0
16:22:23,-286.0,377.0,333.0
16:22:23,-286.0,377.0,333.0
16:22:23,-286.0,377.0,333.0
16:22:23,-281.0,377.0,333.0
16:22:23,-281.0,377.0,333.0
16:22:23,-281.0,377.0,333.0
16:22:23,-281.0,377.0,333.0
16:22:23,-267.0,377.0,333.0
16:22:23,-267.0,377.0,333.0
16:22:23,-267.0,377.0,333.0
16:22:23,-267.0,377.0,333.0
16:22:23,-273.0,377.0,332.0
16:22:23,-273.0,377.0,332.0
16:22:23,-273.0,377.0,332.0
16:22:23,-273.0,377.0,332.0
16:22:23,-269.0,379.0,332.0
16:22:23,-269.0,379.0,332.0
16:22:23,-269.0,379.0,332.0
16:22:23,-269.0,379.0,332.0
16:22:23,-303.0,378.0,332.0
16:22:23,-303.0,378.0,332.0
16:22:23,-303.0,378.0,332.0
16:22:23,-303.0,378.0,332.0
16:22:23,-279.0,379.0,332.0
16:22:23,-279.0,379.0,332.0
16:22:23,-279.0,379.0,332.0
16:22:23,-279.0,379.0,332.0
16:22:23,-276.0,377.0,332.0
16:22:23,-276.0,377.0,332.0
16:22:23,-276.0,377.0,332.0
16:22:23,-276.0,377.0,332.0
16:22:23,-272.0,376.0,333.0
16:22:23,-272.0,376.0,333.0
16:22:23,-272.0,376.0,333.0
16:22:23,-272.0,376.0,333.0
16:22:23,-274.0,378.0,333.0
16:22:23,-274.0,378.0,333.0
16:22:23,-274.0,378.0,333.0
16:22:23,-274.0,378.0,333.0
16:22:23,-274.0,379.0,332.0
16:22:23,-274.0,379.0,332.0
16:22:23,-274.0,379.0,332.0
16:22:23,-274.0,379.0,332.0
16:22:23,-258.0,378.0,333.0
16:22:23,-258.0,378.0,333.0
16:22:23,-258.0,378.0,333.0
16:22:23,-258.0,378.0,333.0
16:22:23,-264.0,379.0,333.0
16:22:23,-264.0,379.0,333.0
16:22:23,-264.0,379.0,333.0
16:22:23,-264.0,379.0,333.0
16:22:23,-254.0,379.0,332.0
16:22:23,-254.0,379.0,332.0
16:22:23,-254.0,379.0,332.0
16:22:23,-254.0,379.0,332.0
16:22:23,-167.0,378.0,333.0
16:22:23,-167.0,378.0,333.0
16:22:23,-167.0,378.0,333.0
16:22:23,-167.0,378.0,333.0
16:22:23,-162.0,379.0,333.0
16:22:23,-162.0,379.0,333.0
16:22:23,-162.0,379.0,333.0
16:22:23,-162.0,379.0,333.0
16:22:23,-283.0,380.0,334.0
16:22:23,-283.0,380.0,334.0
16:22:23,-283.0,380.0,334.0
16:22:23,-283.0,380.0,334.0
16:22:23,-306.0,379.0,331.0
16:22:23,-306.0,379.0,331.0
16:22:23,-306.0,379.0,331.0
16:22:23,-306.0,379.0,331.0
16:22:23,-320.0,379.0,333.0
16:22:23,-320.0,379.0,333.0
16:22:23,-320.0,379.0,333.0
16:22:23,-320.0,379.0,333.0
16:22:23,-404.0,379.0,331.0
16:22:23,-404.0,379.0,331.0
16:22:23,-404.0,379.0,331.0
16:22:23,-404.0,379.0,331.0
16:22:23,572.0,379.0,332.0
16:22:23,572.0,379.0,332.0
16:22:23,572.0,379.0,332.0
16:22:23,572.0,379.0,332.0
16:22:23,-18.0,378.0,333.0
16:22:23,-18.0,378.0,333.0
16:22:23,-18.0,378.0,333.0
16:22:23,-18.0,378.0,333.0
16:22:23,-367.0,376.0,332.0
16:22:23,-367.0,376.0,332.0
16:22:23,-367.0,376.0,332.0
16:22:23,-367.0,376.0,332.0
16:22:23,-334.0,378.0,332.0
16:22:23,-334.0,378.0,332.0
16:22:23,-334.0,378.0,332.0
16:22:23,-334.0,378.0,332.0
16:22:23,-337.0,378.0,332.0
16:22:23,-337.0,378.0,332.0
16:22:23,-337.0,378.0,332.0
16:22:23,-337.0,378.0,332.0
16:22:23,-313.0,378.0,331.0
16:22:23,-313.0,378.0,331.0
16:22:23,-313.0,378.0,331.0
16:22:23,-313.0,378.0,331.0
16:22:23,-304.0,379.0,332.0
16:22:23,-304.0,379.0,332.0
16:22:23,-304.0,379.0,332.0
16:22:23,-304.0,379.0,332.0
16:22:23,-270.0,378.0,332.0
16:22:23,-270.0,378.0,332.0
16:22:23,-270.0,378.0,332.0
16:22:23,-270.0,378.0,332.0
16:22:23,-224.0,378.0,331.0
16:22:23,-224.0,378.0,331.0
16:22:23,-224.0,378.0,331.0
16:22:23,-224.0,378.0,331.0
16:22:23,-118.0,377.0,332.0
16:22:23,-118.0,377.0,332.0
16:22:23,-118.0,377.0,332.0
16:22:23,-118.0,377.0,332.0
16:22:23,22.0,378.0,331.0
16:22:23,22.0,378.0,331.0
16:22:23,22.0,378.0,331.0
16:22:23,22.0,378.0,331.0
16:22:23,113.0,377.0,332.0
16:22:23,113.0,377.0,332.0
16:22:23,113.0,377.0,332.0
16:22:23,113.0,377.0,332.0
16:22:23,69.0,378.0,331.0
16:22:23,69.0,378.0,331.0
16:22:23,69.0,378.0,331.0
16:22:23,69.0,378.0,331.0
16:22:23,-137.0,378.0,333.0
16:22:23,-137.0,378.0,333.0
16:22:23,-137.0,378.0,333.0
16:22:23,-137.0,378.0,333.0
16:22:23,-272.0,378.0,333.0
16:22:23,-272.0,378.0,333.0
16:22:23,-272.0,378.0,333.0
16:22:23,-272.0,378.0,333.0
16:22:23,-292.0,379.0,333.0
16:22:23,-292.0,379.0,333.0
16:22:23,-292.0,379.0,333.0
16:22:23,-292.0,379.0,333.0
16:22:23,-273.0,378.0,333.0
16:22:23,-273.0,378.0,333.0
16:22:23,-273.0,378.0,333.0
16:22:23,-273.0,378.0,333.0
16:22:23,-247.0,378.0,333.0
16:22:23,-247.0,378.0,333.0
16:22:23,-247.0,378.0,333.0
16:22:23,-247.0,378.0,333.0
16:22:23,-219.0,379.0,332.0
16:22:23,-219.0,379.0,332.0
16:22:23,-219.0,379.0,332.0
16:22:23,-219.0,379.0,332.0
16:22:23,-195.0,379.0,333.0
16:22:23,-195.0,379.0,333.0
16:22:24,-195.0,379.0,333.0
16:22:24,-195.0,379.0,333.0
16:22:24,-196.0,378.0,332.0
16:22:24,-196.0,378.0,332.0
16:22:24,-196.0,378.0,332.0
16:22:24,-196.0,378.0,332.0
16:22:24,-225.0,379.0,332.0
16:22:24,-225.0,379.0,332.0
16:22:24,-225.0,379.0,332.0
16:22:24,-225.0,379.0,332.0
16:22:24,-240.0,379.0,332.0
16:22:24,-240.0,379.0,332.0
16:22:24,-240.0,379.0,332.0
16:22:24,-240.0,379.0,332.0
16:22:24,-290.0,379.0,332.0
16:22:24,-290.0,379.0,332.0
16:22:24,-290.0,379.0,332.0
16:22:24,-290.0,379.0,332.0
16:22:24,-314.0,379.0,332.0
16:22:24,-314.0,379.0,332.0
16:22:24,-314.0,379.0,332.0
16:22:24,-314.0,379.0,332.0
16:22:24,-310.0,378.0,334.0
16:22:24,-310.0,378.0,334.0
16:22:24,-310.0,378.0,334.0
16:22:24,-310.0,378.0,334.0
16:22:24,-348.0,379.0,333.0
16:22:24,-348.0,379.0,333.0
16:22:24,-348.0,379.0,333.0
16:22:24,-348.0,379.0,333.0
16:22:24,-355.0,379.0,333.0
16:22:24,-355.0,379.0,333.0
16:22:24,-355.0,379.0,333.0
16:22:24,-355.0,379.0,333.0
16:22:24,-359.0,379.0,333.0
16:22:24,-359.0,379.0,333.0
16:22:24,-359.0,379.0,333.0
16:22:24,-359.0,379.0,333.0
16:22:24,-361.0,377.0,332.0
16:22:24,-361.0,377.0,332.0
16:22:24,-361.0,377.0,332.0
16:22:24,-361.0,377.0,332.0
16:22:24,-312.0,379.0,331.0
16:22:24,-312.0,379.0,331.0
16:22:24,-312.0,379.0,331.0
16:22:24,-312.0,379.0,331.0
16:22:24,-236.0,379.0,333.0
16:22:24,-236.0,379.0,333.0
16:22:24,-236.0,379.0,333.0
16:22:24,-236.0,379.0,333.0
16:22:24,-168.0,377.0,333.0
16:22:24,-168.0,377.0,333.0
16:22:24,-168.0,377.0,333.0
16:22:24,-168.0,377.0,333.0
16:22:24,-198.0,378.0,332.0
16:22:24,-198.0,378.0,332.0
16:22:24,-198.0,378.0,332.0
16:22:24,-198.0,378.0,332.0
16:22:24,-222.0,379.0,332.0
16:22:24,-222.0,379.0,332.0
16:22:24,-222.0,379.0,332.0
16:22:24,-222.0,379.0,332.0
16:22:24,-184.0,377.0,333.0
16:22:24,-184.0,377.0,333.0
16:22:24,-184.0,377.0,333.0
16:22:24,-184.0,377.0,333.0
16:22:24,-156.0,378.0,333.0
16:22:24,-156.0,378.0,333.0
16:22:24,-156.0,378.0,333.0
16:22:24,-156.0,378.0,333.0
16:22:24,131.0,379.0,333.0
16:22:24,131.0,379.0,333.0
16:22:24,131.0,379.0,333.0
16:22:24,131.0,379.0,333.0
16:22:24,415.0,379.0,332.0
16:22:24,415.0,379.0,332.0
16:22:24,415.0,379.0,332.0
16:22:24,415.0,379.0,332.0
16:22:24,-308.0,378.0,331.0
16:22:24,-308.0,378.0,331.0
16:22:24,-308.0,378.0,331.0
16:22:24,-308.0,378.0,331.0
16:22:24,-311.0,378.0,333.0
16:22:24,-311.0,378.0,333.0
16:22:24,-311.0,378.0,333.0
16:22:24,-311.0,378.0,333.0
16:22:24,-346.0,379.0,332.0
16:22:24,-346.0,379.0,332.0
16:22:24,-346.0,379.0,332.0
16:22:24,-346.0,379.0,332.0
16:22:24,-355.0,379.0,331.0
16:22:24,-355.0,379.0,331.0
16:22:24,-355.0,379.0,331.0
16:22:24,-355.0,379.0,331.0
16:22:24,-380.0,379.0,332.0
16:22:24,-380.0,379.0,332.0
16:22:24,-380.0,379.0,332.0
16:22:24,-380.0,379.0,332.0
16:22:24,-414.0,379.0,332.0
16:22:24,-414.0,379.0,332.0
16:22:24,-414.0,379.0,332.0
16:22:24,-414.0,379.0,332.0
16:22:24,-381.0,379.0,331.0
16:22:24,-381.0,379.0,331.0
16:22:24,-381.0,379.0,331.0
16:22:24,-381.0,379.0,331.0
16:22:24,-305.0,377.0,332.0
16:22:24,-305.0,377.0,332.0
16:22:24,-305.0,377.0,332.0
16:22:24,-305.0,377.0,332.0
16:22:24,-237.0,379.0,333.0
16:22:24,-237.0,379.0,333.0
16:22:24,-237.0,379.0,333.0
16:22:24,-237.0,379.0,333.0
16:22:24,-114.0,378.0,334.0
16:22:24,-114.0,378.0,334.0
16:22:24,-114.0,378.0,334.0
16:22:24,-114.0,378.0,334.0
16:22:24,-141.0,379.0,333.0
16:22:24,-141.0,379.0,333.0
16:22:24,-141.0,379.0,333.0
16:22:24,-141.0,379.0,333.0
16:22:24,-333.0,379.0,332.0
16:22:24,-333.0,379.0,332.0
16:22:24,-333.0,379.0,332.0
16:22:24,-333.0,379.0,332.0
16:22:24,-591.0,379.0,333.0
16:22:24,-591.0,379.0,333.0
16:22:24,-591.0,379.0,333.0
16:22:24,-591.0,379.0,333.0
16:22:24,-709.0,379.0,333.0
16:22:24,-709.0,379.0,333.0
16:22:24,-709.0,379.0,333.0
16:22:24,-709.0,379.0,333.0
16:22:24,-771.0,378.0,333.0
16:22:24,-771.0,378.0,333.0
16:22:24,-771.0,378.0,333.0
16:22:24,-771.0,378.0,333.0
16:22:24,-783.0,379.0,333.0
16:22:24,-783.0,379.0,333.0
16:22:24,-783.0,379.0,333.0
16:22:24,-783.0,379.0,333.0
16:22:24,-783.0,378.0,332.0
16:22:24,-783.0,378.0,332.0
16:22:24,-783.0,378.0,332.0
16:22:24,-783.0,378.0,332.0
16:22:24,-768.0,379.0,333.0
16:22:24,-768.0,379.0,333.0
16:22:24,-768.0,379.0,333.0
16:22:24,-768.0,379.0,333.0
16:22:24,-729.0,378.0,332.0
16:22:24,-729.0,378.0,332.0
16:22:24,-729.0,378.0,332.0
16:22:24,-729.0,378.0,332.0
16:22:24,-690.0,379.0,332.0
16:22:24,-690.0,379.0,332.0
16:22:24,-690.0,379.0,332.0
16:22:24,-690.0,379.0,332.0
16:22:24,-693.0,379.0,332.0
16:22:24,-693.0,379.0,332.0
16:22:24,-693.0,379.0,332.0
16:22:24,-693.0,379.0,332.0
16:22:24,-655.0,379.0,333.0
16:22:24,-655.0,379.0,333.0
16:22:24,-655.0,379.0,333.0
16:22:24,-655.0,379.0,333.0
16:22:24,-656.0,379.0,333.0
16:22:24,-656.0,379.0,333.0
16:22:24,-656.0,379.0,333.0
16:22:24,-656.0,379.0,333.0
16:22:24,-672.0,377.0,333.0
16:22:24,-672.0,377.0,333.0
16:22:24,-672.0,377.0,333.0
16:22:24,-672.0,377.0,333.0
16:22:24,-668.0,377.0,332.0
16:22:24,-668.0,377.0,332.0
16:22:24,-668.0,377.0,332.0
16:22:24,-668.0,377.0,332.0
16:22:24,-671.0,378.0,331.0
16:22:24,-671.0,378.0,331.0
16:22:24,-671.0,378.0,331.0
16:22:24,-671.0,378.0,331.0
16:22:24,-673.0,378.0,331.0
16:22:24,-673.0,378.0,331.0
16:22:24,-673.0,378.0,331.0
16:22:24,-673.0,378.0,331.0
16:22:24,-663.0,378.0,333.0
16:22:24,-663.0,378.0,333.0
16:22:24,-663.0,378.0,333.0
16:22:24,-663.0,378.0,333.0
16:22:24,-694.0,378.0,331.0
16:22:24,-694.0,378.0,331.0
16:22:24,-694.0,378.0,331.0
16:22:24,-694.0,378.0,331.0
16:22:24,-676.0,377.0,332.0
16:22:24,-676.0,377.0,332.0
16:22:24,-676.0,377.0,332.0
16:22:24,-676.0,377.0,332.0
16:22:24,-620.0,378.0,333.0
16:22:24,-620.0,378.0,333.0
16:22:24,-620.0,378.0,333.0
16:22:25,-620.0,378.0,333.0
16:22:25,-596.0,378.0,332.0
16:22:25,-596.0,378.0,332.0
16:22:25,-596.0,378.0,332.0
16:22:25,-596.0,378.0,332.0
16:22:25,-710.0,378.0,333.0
16:22:25,-710.0,378.0,333.0
16:22:25,-710.0,378.0,333.0
16:22:25,-710.0,378.0,333.0
16:22:25,-733.0,378.0,334.0
16:22:25,-733.0,378.0,334.0
16:22:25,-733.0,378.0,334.0
16:22:25,-733.0,378.0,334.0
16:22:25,-738.0,379.0,332.0
16:22:25,-738.0,379.0,332.0
16:22:25,-738.0,379.0,332.0
16:22:25,-738.0,379.0,332.0
16:22:25,-802.0,379.0,332.0
16:22:25,-802.0,379.0,332.0
16:22:25,-802.0,379.0,332.0
16:22:25,-802.0,379.0,332.0
16:22:25,139.0,379.0,332.0
16:22:25,139.0,379.0,332.0
16:22:25,139.0,379.0,332.0
16:22:25,139.0,379.0,332.0
16:22:25,-400.0,379.0,333.0
16:22:25,-400.0,379.0,333.0
16:22:25,-400.0,379.0,333.0
16:22:25,-400.0,379.0,333.0
16:22:25,-774.0,378.0,333.0
16:22:25,-774.0,378.0,333.0
16:22:25,-774.0,378.0,333.0
16:22:25,-774.0,378.0,333.0
16:22:25,-690.0,379.0,333.0
16:22:25,-690.0,379.0,333.0
16:22:25,-690.0,379.0,333.0
16:22:25,-690.0,379.0,333.0
16:22:25,-666.0,379.0,333.0
16:22:25,-666.0,379.0,333.0
16:22:25,-666.0,379.0,333.0
16:22:25,-666.0,379.0,333.0
16:22:25,-624.0,378.0,333.0
16:22:25,-624.0,378.0,333.0
16:22:25,-624.0,378.0,333.0
16:22:25,-624.0,378.0,333.0
16:22:25,-608.0,378.0,332.0
16:22:25,-608.0,378.0,332.0
16:22:25,-608.0,378.0,332.0
16:22:25,-608.0,378.0,332.0
16:22:25,-570.0,378.0,332.0
16:22:25,-570.0,378.0,332.0
16:22:25,-570.0,378.0,332.0
16:22:25,-570.0,378.0,332.0
16:22:25,-551.0,378.0,333.0
16:22:25,-551.0,378.0,333.0
16:22:25,-551.0,378.0,333.0
16:22:25,-551.0,378.0,333.0
16:22:25,-487.0,377.0,333.0
16:22:25,-487.0,377.0,333.0
16:22:25,-487.0,377.0,333.0
16:22:25,-487.0,377.0,333.0
16:22:25,-395.0,378.0,331.0
16:22:25,-395.0,378.0,331.0
16:22:25,-395.0,378.0,331.0
16:22:25,-395.0,378.0,331.0
16:22:25,-342.0,378.0,332.0
16:22:25,-342.0,378.0,332.0
16:22:25,-342.0,378.0,332.0
16:22:25,-342.0,378.0,332.0
16:22:25,-428.0,377.0,334.0
16:22:25,-428.0,377.0,334.0
16:22:25,-428.0,377.0,334.0
16:22:25,-428.0,377.0,334.0
16:22:25,-595.0,378.0,332.0
16:22:25,-595.0,378.0,332.0
16:22:25,-595.0,378.0,332.0
16:22:25,-595.0,378.0,332.0
16:22:25,-714.0,377.0,333.0
16:22:25,-714.0,377.0,333.0
16:22:25,-714.0,377.0,333.0
16:22:25,-714.0,377.0,333.0
16:22:25,-736.0,378.0,332.0
16:22:25,-736.0,378.0,332.0
16:22:25,-736.0,378.0,332.0
16:22:25,-736.0,378.0,332.0
16:22:25,-708.0,378.0,333.0
16:22:25,-708.0,378.0,333.0
16:22:25,-708.0,378.0,333.0
16:22:25,-708.0,378.0,333.0
16:22:25,-642.0,379.0,333.0
16:22:25,-642.0,379.0,333.0
16:22:25,-642.0,379.0,333.0
16:22:25,-642.0,379.0,333.0
16:22:25,-574.0,378.0,334.0
16:22:25,-574.0,378.0,334.0
16:22:25,-574.0,378.0,334.0
16:22:25,-574.0,378.0,334.0
16:22:25,-490.0,379.0,332.0
16:22:25,-490.0,379.0,332.0
16:22:25,-490.0,379.0,332.0
16:22:25,-490.0,379.0,332.0
16:22:25,-416.0,378.0,332.0
16:22:25,-416.0,378.0,332.0
16:22:25,-416.0,378.0,332.0
16:22:25,-416.0,378.0,332.0
16:22:25,-405.0,379.0,332.0
16:22:25,-405.0,379.0,332.0
16:22:25,-405.0,379.0,332.0
16:22:25,-405.0,379.0,332.0
16:22:25,-384.0,380.0,332.0
16:22:25,-384.0,380.0,332.0
16:22:25,-384.0,380.0,332.0
16:22:25,-384.0,380.0,332.0
16:22:25,-411.0,379.0,333.0
16:22:25,-411.0,379.0,333.0
16:22:25,-411.0,379.0,333.0
16:22:25,-411.0,379.0,333.0
16:22:25,-446.0,379.0,332.0
16:22:25,-446.0,379.0,332.0
16:22:25,-446.0,379.0,332.0
16:22:25,-446.0,379.0,332.0
16:22:25,-449.0,378.0,333.0
16:22:25,-449.0,378.0,333.0
16:22:25,-449.0,378.0,333.0
16:22:25,-449.0,378.0,333.0
16:22:25,-473.0,379.0,332.0
16:22:25,-473.0,379.0,332.0
16:22:25,-473.0,379.0,332.0
16:22:25,-473.0,379.0,332.0
16:22:25,-459.0,379.0,331.0
16:22:25,-459.0,379.0,331.0
16:22:25,-459.0,379.0,331.0
16:22:25,-459.0,379.0,331.0
16:22:25,-414.0,378.0,334.0
16:22:25,-414.0,378.0,334.0
16:22:25,-414.0,378.0,334.0
16:22:25,-414.0,378.0,334.0
16:22:25,-372.0,378.0,332.0
16:22:25,-372.0,378.0,332.0
16:22:25,-372.0,378.0,332.0
16:22:25,-372.0,378.0,332.0
16:22:25,-328.0,380.0,332.0
16:22:25,-328.0,380.0,332.0
16:22:25,-328.0,380.0,332.0
16:22:25,-328.0,380.0,332.0
16:22:25,-261.0,379.0,333.0
16:22:25,-261.0,379.0,333.0
16:22:25,-261.0,379.0,333.0
16:22:25,-261.0,379.0,333.0
16:22:25,-181.0,378.0,332.0
16:22:25,-181.0,378.0,332.0
16:22:25,-181.0,378.0,332.0
16:22:25,-181.0,378.0,332.0
16:22:25,-57.0,377.0,333.0
16:22:25,-57.0,377.0,333.0
16:22:25,-57.0,377.0,333.0
16:22:25,-57.0,377.0,333.0
16:22:25,149.0,379.0,334.0
16:22:25,149.0,379.0,334.0
16:22:25,149.0,379.0,334.0
16:22:25,149.0,379.0,334.0
16:22:25,319.0,379.0,333.0
16:22:25,319.0,379.0,333.0
16:22:25,319.0,379.0,333.0
16:22:25,319.0,379.0,333.0
16:22:25,381.0,378.0,334.0
16:22:25,381.0,378.0,334.0
16:22:25,381.0,378.0,334.0
16:22:25,381.0,378.0,334.0
16:22:25,382.0,377.0,333.0
16:22:25,382.0,377.0,333.0
16:22:25,382.0,377.0,333.0
16:22:25,382.0,377.0,333.0
16:22:25,295.0,377.0,333.0
16:22:25,295.0,377.0,333.0
16:22:25,295.0,377.0,333.0
16:22:25,295.0,377.0,333.0
16:22:25,217.0,379.0,332.0
16:22:25,217.0,379.0,332.0
16:22:25,217.0,379.0,332.0
16:22:25,217.0,379.0,332.0
16:22:25,1047.0,379.0,331.0
16:22:25,1047.0,379.0,331.0
16:22:25,1047.0,379.0,331.0
16:22:25,1047.0,379.0,331.0
16:22:25,402.0,380.0,332.0
16:22:25,402.0,380.0,332.0
16:22:25,402.0,380.0,332.0
16:22:25,402.0,380.0,332.0
16:22:25,181.0,379.0,332.0
16:22:25,181.0,379.0,332.0
16:22:25,181.0,379.0,332.0
16:22:25,181.0,379.0,332.0
16:22:25,214.0,378.0,333.0
16:22:25,214.0,378.0,333.0
16:22:25,214.0,378.0,333.0
16:22:25,214.0,378.0,333.0
16:22:25,233.0,378.0,332.0
16:22:25,233.0,378.0,332.0
16:22:25,233.0,378.0,332.0
16:22:25,233.0,378.0,332.0
16:22:26,213.0,380.0,332.0
16:22:26,213.0,380.0,332.0
16:22:26,213.0,380.0,332.0
16:22:26,213.0,380.0,332.0
16:22:26,174.0,378.0,333.0
16:22:26,174.0,378.0,333.0
16:22:26,174.0,378.0,333.0
16:22:26,174.0,378.0,333.0
16:22:26,115.0,378.0,333.0
16:22:26,115.0,378.0,333.0
16:22:26,115.0,378.0,333.0
16:22:26,115.0,378.0,333.0
16:22:26,56.0,378.0,333.0
16:22:26,56.0,378.0,333.0
16:22:26,56.0,378.0,333.0
16:22:26,56.0,378.0,333.0
16:22:26,45.0,379.0,332.0
16:22:26,45.0,379.0,332.0
16:22:26,45.0,379.0,332.0
16:22:26,45.0,379.0,332.0
16:22:26,9.0,379.0,332.0
16:22:26,9.0,379.0,332.0
16:22:26,9.0,379.0,332.0
16:22:26,9.0,379.0,332.0
16:22:26,-91.0,379.0,332.0
16:22:26,-91.0,379.0,332.0
16:22:26,-91.0,379.0,332.0
16:22:26,-91.0,379.0,332.0
16:22:26,-347.0,379.0,332.0
16:22:26,-347.0,379.0,332.0
16:22:26,-347.0,379.0,332.0
16:22:26,-347.0,379.0,332.0
16:22:26,-712.0,380.0,332.0
16:22:26,-712.0,380.0,332.0
16:22:26,-712.0,380.0,332.0
16:22:26,-712.0,380.0,332.0
16:22:26,-994.0,378.0,332.0
16:22:26,-994.0,378.0,332.0
16:22:26,-994.0,378.0,332.0
16:22:26,-994.0,378.0,332.0
16:22:26,-1182.0,379.0,332.0
16:22:26,-1182.0,379.0,332.0
16:22:26,-1182.0,379.0,332.0
16:22:26,-1182.0,379.0,332.0
16:22:26,-1244.0,379.0,332.0
16:22:26,-1244.0,379.0,332.0
16:22:26,-1244.0,379.0,332.0
16:22:26,-1244.0,379.0,332.0
16:22:26,-1290.0,378.0,333.0
16:22:26,-1290.0,378.0,333.0
16:22:26,-1290.0,378.0,333.0
16:22:26,-1290.0,378.0,333.0
16:22:26,-1315.0,378.0,333.0
16:22:26,-1315.0,378.0,333.0
16:22:26,-1315.0,378.0,333.0
16:22:26,-1315.0,378.0,333.0
16:22:26,-1283.0,378.0,333.0
16:22:26,-1283.0,378.0,333.0
16:22:26,-1283.0,378.0,333.0
16:22:26,-1283.0,378.0,333.0
16:22:26,-1239.0,377.0,331.0
16:22:26,-1239.0,377.0,331.0
16:22:26,-1239.0,377.0,331.0
16:22:26,-1239.0,377.0,331.0
16:22:26,-1169.0,378.0,332.0
16:22:26,-1169.0,378.0,332.0
16:22:26,-1169.0,378.0,332.0
16:22:26,-1169.0,378.0,332.0
16:22:26,-1100.0,378.0,334.0
16:22:26,-1100.0,378.0,334.0
16:22:26,-1100.0,378.0,334.0
16:22:26,-1100.0,378.0,334.0
16:22:26,-1077.0,377.0,331.0
16:22:26,-1077.0,377.0,331.0
16:22:26,-1077.0,377.0,331.0
16:22:26,-1077.0,377.0,331.0
16:22:26,-1059.0,379.0,333.0
16:22:26,-1059.0,379.0,333.0
16:22:26,-1059.0,379.0,333.0
16:22:26,-1059.0,379.0,333.0
16:22:26,-1045.0,378.0,333.0
16:22:26,-1045.0,378.0,333.0
16:22:26,-1045.0,378.0,333.0
16:22:26,-1045.0,378.0,333.0
16:22:26,-1068.0,377.0,332.0
16:22:26,-1068.0,377.0,332.0
16:22:26,-1068.0,377.0,332.0
16:22:26,-1068.0,377.0,332.0
16:22:26,-1044.0,377.0,334.0
16:22:26,-1044.0,377.0,334.0
16:22:26,-1044.0,377.0,334.0
16:22:26,-1044.0,377.0,334.0
16:22:26,-1042.0,379.0,333.0
16:22:26,-1042.0,379.0,333.0
16:22:26,-1042.0,379.0,333.0
16:22:26,-1042.0,379.0,333.0
16:22:26,-1010.0,378.0,332.0
16:22:26,-1010.0,378.0,332.0
16:22:26,-1010.0,378.0,332.0
16:22:26,-1010.0,378.0,332.0
16:22:26,-963.0,380.0,333.0
16:22:26,-963.0,380.0,333.0
16:22:26,-963.0,380.0,333.0
16:22:26,-963.0,380.0,333.0
16:22:26,-878.0,379.0,332.0
16:22:26,-878.0,379.0,332.0
16:22:26,-878.0,379.0,332.0
16:22:26,-878.0,379.0,332.0
16:22:26,-751.0,377.0,333.0
16:22:26,-751.0,377.0,333.0
16:22:26,-751.0,377.0,333.0
16:22:26,-751.0,377.0,333.0
16:22:26,-781.0,377.0,334.0
16:22:26,-781.0,377.0,334.0
16:22:26,-781.0,377.0,334.0
16:22:26,-781.0,377.0,334.0
16:22:26,-774.0,379.0,334.0
16:22:26,-774.0,379.0,334.0
16:22:26,-774.0,379.0,334.0
16:22:26,-774.0,379.0,334.0
16:22:26,-752.0,378.0,332.0
16:22:26,-752.0,378.0,332.0
16:22:26,-752.0,378.0,332.0
16:22:26,-752.0,378.0,332.0
16:22:26,-713.0,379.0,332.0
16:22:26,-713.0,379.0,332.0
16:22:26,-713.0,379.0,332.0
16:22:26,-713.0,379.0,332.0
16:22:26,-216.0,378.0,334.0
16:22:26,-216.0,378.0,334.0
16:22:26,-216.0,378.0,334.0
16:22:26,-216.0,378.0,334.0
16:22:26,-116.0,379.0,333.0
16:22:26,-116.0,379.0,333.0
16:22:26,-116.0,379.0,333.0
16:22:26,-116.0,379.0,333.0
16:22:26,-707.0,378.0,332.0
16:22:26,-707.0,378.0,332.0
16:22:26,-707.0,378.0,332.0
16:22:26,-707.0,378.0,332.0
16:22:26,-664.0,377.0,331.0
16:22:26,-664.0,377.0,331.0
16:22:26,-664.0,377.0,331.0
16:22:26,-664.0,377.0,331.0
16:22:26,-677.0,378.0,331.0
16:22:26,-677.0,378.0,331.0
16:22:26,-677.0,378.0,331.0
16:22:26,-677.0,378.0,331.0
16:22:26,-671.0,378.0,333.0
16:22:26,-671.0,378.0,333.0
16:22:26,-671.0,378.0,333.0
16:22:26,-671.0,378.0,333.0
16:22:26,-668.0,377.0,331.0
16:22:26,-668.0,377.0,331.0
16:22:26,-668.0,377.0,331.0
16:22:26,-668.0,377.0,331.0
16:22:26,-642.0,377.0,332.0
16:22:26,-642.0,377.0,332.0
16:22:26,-642.0,377.0,332.0
16:22:26,-642.0,377.0,332.0
16:22:26,-587.0,377.0,332.0
16:22:26,-587.0,377.0,332.0
16:22:26,-587.0,377.0,332.0
16:22:26,-587.0,377.0,332.0
16:22:26,-418.0,378.0,331.0
16:22:26,-418.0,378.0,331.0
16:22:26,-418.0,378.0,331.0
16:22:26,-418.0,378.0,331.0
16:22:26,-184.0,378.0,333.0
16:22:26,-184.0,378.0,333.0
16:22:26,-184.0,378.0,333.0
16:22:26,-184.0,378.0,333.0
16:22:26,6.0,378.0,332.0
16:22:26,6.0,378.0,332.0
16:22:26,6.0,378.0,332.0
16:22:26,6.0,378.0,332.0
16:22:26,15.0,378.0,332.0
16:22:26,15.0,378.0,332.0
16:22:26,15.0,378.0,332.0
16:22:26,15.0,378.0,332.0
16:22:26,-214.0,379.0,331.0
16:22:26,-214.0,379.0,331.0
16:22:26,-214.0,379.0,331.0
16:22:26,-214.0,379.0,331.0
16:22:26,-417.0,379.0,332.0
16:22:26,-417.0,379.0,332.0
16:22:26,-417.0,379.0,332.0
16:22:26,-417.0,379.0,332.0
16:22:26,-545.0,377.0,334.0
16:22:26,-545.0,377.0,334.0
16:22:26,-545.0,377.0,334.0
16:22:26,-545.0,377.0,334.0
16:22:26,-557.0,378.0,333.0
16:22:26,-557.0,378.0,333.0
16:22:26,-557.0,378.0,333.0
16:22:26,-557.0,378.0,333.0
16:22:26,-537.0,379.0,333.0
16:22:26,-537.0,379.0,333.0
16:22:26,-537.0,379.0,333.0
16:22:26,-537.0,379.0,333.0
16:22:26,-461.0,379.0,332.0
16:22:27,-461.0,379.0,332.0
16:22:27,-461.0,379.0,332.0
16:22:27,-461.0,379.0,332.0
16:22:27,-396.0,378.0,332.0
16:22:27,-396.0,378.0,332.0
16:22:27,-396.0,378.0,332.0
16:22:27,-396.0,378.0,332.0
16:22:27,-360.0,378.0,333.0
16:22:27,-360.0,378.0,333.0
16:22:27,-360.0,378.0,333.0
16:22:27,-360.0,378.0,333.0
16:22:27,-326.0,379.0,334.0
16:22:27,-326.0,379.0,334.0
16:22:27,-326.0,379.0,334.0
16:22:27,-326.0,379.0,334.0
16:22:27,-285.0,378.0,332.0
16:22:27,-285.0,378.0,332.0
16:22:27,-285.0,378.0,332.0
16:22:27,-285.0,378.0,332.0
16:22:27,-276.0,379.0,332.0
16:22:27,-276.0,379.0,332.0
16:22:27,-276.0,379.0,332.0
16:22:27,-276.0,379.0,332.0
16:22:27,-268.0,379.0,334.0
16:22:27,-268.0,379.0,334.0
16:22:27,-268.0,379.0,334.0
16:22:27,-268.0,379.0,334.0
16:22:27,-275.0,378.0,333.0
16:22:27,-275.0,378.0,333.0
16:22:27,-275.0,378.0,333.0
16:22:27,-275.0,378.0,333.0
16:22:27,-292.0,379.0,333.0
16:22:27,-292.0,379.0,333.0
16:22:27,-292.0,379.0,333.0
16:22:27,-292.0,379.0,333.0
16:22:27,-293.0,379.0,332.0
16:22:27,-293.0,379.0,332.0
16:22:27,-293.0,379.0,332.0
16:22:27,-293.0,379.0,332.0
16:22:27,-239.0,377.0,332.0
16:22:27,-239.0,377.0,332.0
16:22:27,-239.0,377.0,332.0
16:22:27,-239.0,377.0,332.0
16:22:27,-211.0,377.0,332.0
16:22:27,-211.0,377.0,332.0
16:22:27,-211.0,377.0,332.0
16:22:27,-211.0,377.0,332.0
16:22:27,-206.0,377.0,334.0
16:22:27,-206.0,377.0,334.0
16:22:27,-206.0,377.0,334.0
16:22:27,-206.0,377.0,334.0
16:22:27,-166.0,377.0,332.0
16:22:27,-166.0,377.0,332.0
16:22:27,-166.0,377.0,332.0
16:22:27,-166.0,377.0,332.0
16:22:27,-146.0,378.0,331.0
16:22:27,-146.0,378.0,331.0
16:22:27,-146.0,378.0,331.0
16:22:27,-146.0,378.0,331.0
16:22:27,-149.0,378.0,332.0
16:22:27,-149.0,378.0,332.0
16:22:27,-149.0,378.0,332.0
16:22:27,-149.0,378.0,332.0
16:22:27,-54.0,377.0,332.0
16:22:27,-54.0,377.0,332.0
16:22:27,-54.0,377.0,332.0
16:22:27,-54.0,377.0,332.0
16:22:27,-76.0,377.0,332.0
16:22:27,-76.0,377.0,332.0
16:22:27,-76.0,377.0,332.0
16:22:27,-76.0,377.0,332.0
16:22:27,-159.0,379.0,333.0
16:22:27,-159.0,379.0,333.0
16:22:27,-159.0,379.0,333.0
16:22:27,-159.0,379.0,333.0
16:22:27,-169.0,379.0,333.0
16:22:27,-169.0,379.0,333.0
16:22:27,-169.0,379.0,333.0
16:22:27,-169.0,379.0,333.0
16:22:27,-155.0,379.0,332.0
16:22:27,-155.0,379.0,332.0
16:22:27,-155.0,379.0,332.0
16:22:27,-155.0,379.0,332.0
16:22:27,-59.0,379.0,333.0
16:22:27,-59.0,379.0,333.0
16:22:27,-59.0,379.0,333.0
16:22:27,-59.0,379.0,333.0
16:22:27,594.0,377.0,332.0
16:22:27,594.0,377.0,332.0
16:22:27,594.0,377.0,332.0
16:22:27,594.0,377.0,332.0
16:22:27,-44.0,379.0,333.0
16:22:27,-44.0,379.0,333.0
16:22:27,-44.0,379.0,333.0
16:22:27,-44.0,379.0,333.0
16:22:27,-194.0,379.0,332.0
16:22:27,-194.0,379.0,332.0
16:22:27,-194.0,379.0,332.0
16:22:27,-194.0,379.0,332.0
16:22:27,-198.0,379.0,332.0
16:22:27,-198.0,379.0,332.0
16:22:27,-198.0,379.0,332.0
16:22:27,-198.0,379.0,332.0
16:22:27,-167.0,379.0,333.0
16:22:27,-167.0,379.0,333.0
16:22:27,-167.0,379.0,333.0
16:22:27,-167.0,379.0,333.0
16:22:27,-156.0,379.0,332.0
16:22:27,-156.0,379.0,332.0
16:22:27,-156.0,379.0,332.0
16:22:27,-156.0,379.0,332.0
16:22:27,-143.0,378.0,331.0
16:22:27,-143.0,378.0,331.0
16:22:27,-143.0,378.0,331.0
16:22:27,-143.0,378.0,331.0
16:22:27,-78.0,378.0,331.0
16:22:27,-78.0,378.0,331.0
16:22:27,-78.0,378.0,331.0
16:22:27,-78.0,378.0,331.0
16:22:27,-14.0,378.0,332.0
16:22:27,-14.0,378.0,332.0
16:22:27,-14.0,378.0,332.0
16:22:27,-14.0,378.0,332.0
16:22:27,126.0,378.0,333.0
16:22:27,126.0,378.0,333.0
16:22:27,126.0,378.0,333.0
16:22:27,126.0,378.0,333.0
16:22:27,274.0,377.0,332.0
16:22:27,274.0,377.0,332.0
16:22:27,274.0,377.0,332.0
16:22:27,274.0,377.0,332.0
16:22:27,283.0,378.0,331.0
16:22:27,283.0,378.0,331.0
16:22:27,283.0,378.0,331.0
16:22:27,283.0,378.0,331.0
16:22:27,172.0,378.0,332.0
16:22:27,172.0,378.0,332.0
16:22:27,172.0,378.0,332.0
16:22:27,172.0,378.0,332.0
16:22:27,-62.0,378.0,332.0
16:22:27,-62.0,378.0,332.0
16:22:27,-62.0,378.0,332.0
16:22:27,-62.0,378.0,332.0
16:22:27,-210.0,377.0,332.0
16:22:27,-210.0,377.0,332.0
16:22:27,-210.0,377.0,332.0
16:22:27,-210.0,377.0,332.0
16:22:27,-262.0,378.0,331.0
16:22:27,-262.0,378.0,331.0
16:22:27,-262.0,378.0,331.0
16:22:27,-262.0,378.0,331.0
16:22:27,-256.0,379.0,331.0
16:22:27,-256.0,379.0,331.0
16:22:27,-256.0,379.0,331.0
16:22:27,-256.0,379.0,331.0
16:22:27,-244.0,378.0,331.0
16:22:27,-244.0,378.0,331.0
16:22:27,-244.0,378.0,331.0
16:22:27,-244.0,378.0,331.0
16:22:27,-219.0,379.0,333.0
16:22:27,-219.0,379.0,333.0
16:22:27,-219.0,379.0,333.0
16:22:27,-219.0,379.0,333.0
16:22:27,-199.0,377.0,332.0
16:22:27,-199.0,377.0,332.0
16:22:27,-199.0,377.0,332.0
16:22:27,-199.0,377.0,332.0
16:22:27,-156.0,378.0,333.0
16:22:27,-156.0,378.0,333.0
16:22:27,-156.0,378.0,333.0
16:22:27,-156.0,378.0,333.0
16:22:27,-161.0,377.0,333.0
16:22:27,-161.0,377.0,333.0
16:22:27,-161.0,377.0,333.0
16:22:27,-161.0,377.0,333.0
16:22:27,-153.0,377.0,333.0
16:22:27,-153.0,377.0,333.0
16:22:27,-153.0,377.0,333.0
16:22:27,-153.0,377.0,333.0
16:22:27,-156.0,380.0,331.0
16:22:27,-156.0,380.0,331.0
16:22:27,-156.0,380.0,331.0
16:22:27,-156.0,380.0,331.0
16:22:27,-166.0,378.0,331.0
16:22:27,-166.0,378.0,331.0
16:22:27,-166.0,378.0,331.0
16:22:27,-166.0,378.0,331.0
16:22:27,-182.0,378.0,334.0
16:22:27,-182.0,378.0,334.0
16:22:27,-182.0,378.0,334.0
16:22:27,-182.0,378.0,334.0
16:22:27,-174.0,378.0,332.0
16:22:27,-174.0,378.0,332.0
16:22:27,-174.0,378.0,332.0
16:22:27,-174.0,378.0,332.0
16:22:27,-190.0,379.0,332.0
16:22:27,-190.0,379.0,332.0
16:22:27,-190.0,379.0,332.0
16:22:27,-190.0,379.0,332.0
16:22:27,-187.0,378.0,332.0
16:22:28,-187.0,378.0,332.0
16:22:28,-187.0,378.0,332.0
16:22:28,-187.0,378.0,332.0
16:22:28,-169.0,378.0,332.0
16:22:28,-169.0,378.0,332.0
16:22:28,-169.0,378.0,332.0
16:22:28,-169.0,378.0,332.0
16:22:28,-210.0,380.0,331.0
16:22:28,-210.0,380.0,331.0
16:22:28,-210.0,380.0,331.0
16:22:28,-210.0,380.0,331.0
16:22:28,-270.0,378.0,332.0
16:22:28,-270.0,378.0,332.0
16:22:28,-270.0,378.0,332.0
16:22:28,-270.0,378.0,332.0
16:22:28,-289.0,376.0,332.0
16:22:28,-289.0,376.0,332.0
16:22:28,-289.0,376.0,332.0
16:22:28,-289.0,376.0,332.0
16:22:28,-341.0,377.0,332.0
16:22:28,-341.0,377.0,332.0
16:22:28,-341.0,377.0,332.0
16:22:28,-341.0,377.0,332.0
16:22:28,-295.0,378.0,332.0
16:22:28,-295.0,378.0,332.0
16:22:28,-295.0,378.0,332.0
16:22:28,-295.0,378.0,332.0
16:22:28,-308.0,377.0,333.0
16:22:28,-308.0,377.0,333.0
16:22:28,-308.0,377.0,333.0
16:22:28,-308.0,377.0,333.0
16:22:28,-390.0,377.0,333.0
16:22:28,-390.0,377.0,333.0
16:22:28,-390.0,377.0,333.0
16:22:28,-390.0,377.0,333.0
16:22:28,-396.0,377.0,333.0
16:22:28,-396.0,377.0,333.0
16:22:28,-396.0,377.0,333.0
16:22:28,-396.0,377.0,333.0
16:22:28,-331.0,379.0,332.0
16:22:28,-331.0,379.0,332.0
16:22:28,-331.0,379.0,332.0
16:22:28,-331.0,379.0,332.0
16:22:28,-326.0,378.0,333.0
16:22:28,-326.0,378.0,333.0
16:22:28,-326.0,378.0,333.0
16:22:28,-326.0,378.0,333.0
16:22:28,563.0,379.0,333.0
16:22:28,563.0,379.0,333.0
16:22:28,563.0,379.0,333.0
16:22:28,563.0,379.0,333.0
16:22:28,-83.0,378.0,334.0
16:22:28,-83.0,378.0,334.0
16:22:28,-83.0,378.0,334.0
16:22:28,-83.0,378.0,334.0
16:22:28,-289.0,378.0,333.0
16:22:28,-289.0,378.0,333.0
16:22:28,-289.0,378.0,333.0
16:22:28,-289.0,378.0,333.0
16:22:28,-272.0,378.0,333.0
16:22:28,-272.0,378.0,333.0
16:22:28,-272.0,378.0,333.0
16:22:28,-272.0,378.0,333.0
16:22:28,-245.0,380.0,334.0
16:22:28,-245.0,380.0,334.0
16:22:28,-245.0,380.0,334.0
16:22:28,-245.0,380.0,334.0
16:22:28,-218.0,377.0,334.0
16:22:28,-218.0,377.0,334.0
16:22:28,-218.0,377.0,334.0
16:22:28,-218.0,377.0,334.0
16:22:28,-128.0,379.0,332.0
16:22:28,-128.0,379.0,332.0
16:22:28,-128.0,379.0,332.0
16:22:28,-128.0,379.0,332.0
16:22:28,-71.0,380.0,333.0
16:22:28,-71.0,380.0,333.0
16:22:28,-71.0,380.0,333.0
16:22:28,-71.0,380.0,333.0
16:22:28,15.0,377.0,333.0
16:22:28,15.0,377.0,333.0
16:22:28,15.0,377.0,333.0
16:22:28,15.0,377.0,333.0
16:22:28,81.0,378.0,333.0
16:22:28,81.0,378.0,333.0
16:22:28,81.0,378.0,333.0
16:22:28,81.0,378.0,333.0
16:22:28,221.0,378.0,333.0
16:22:28,221.0,378.0,333.0
16:22:28,221.0,378.0,333.0
16:22:28,221.0,378.0,333.0
16:22:28,261.0,378.0,332.0
16:22:28,261.0,378.0,332.0
16:22:28,261.0,378.0,332.0
16:22:28,261.0,378.0,332.0
16:22:28,92.0,377.0,333.0
16:22:28,92.0,377.0,333.0
16:22:28,92.0,377.0,333.0
16:22:28,92.0,377.0,333.0
16:22:28,-196.0,378.0,334.0
16:22:28,-196.0,378.0,334.0
16:22:28,-196.0,378.0,334.0
16:22:28,-196.0,378.0,334.0
16:22:28,-479.0,378.0,332.0
16:22:28,-479.0,378.0,332.0
16:22:28,-479.0,378.0,332.0
16:22:28,-479.0,378.0,332.0
16:22:28,-635.0,379.0,332.0
16:22:28,-635.0,379.0,332.0
16:22:28,-635.0,379.0,332.0
16:22:28,-635.0,379.0,332.0
16:22:28,-709.0,379.0,332.0
16:22:28,-709.0,379.0,332.0
16:22:28,-709.0,379.0,332.0
16:22:28,-709.0,379.0,332.0
16:22:28,-742.0,378.0,332.0
16:22:28,-742.0,378.0,332.0
16:22:28,-742.0,378.0,332.0
16:22:28,-742.0,378.0,332.0
16:22:28,-756.0,378.0,333.0
16:22:28,-756.0,378.0,333.0
16:22:28,-756.0,378.0,333.0
16:22:28,-756.0,378.0,333.0
16:22:28,-780.0,380.0,332.0
16:22:28,-780.0,380.0,332.0
16:22:28,-780.0,380.0,332.0
16:22:28,-780.0,380.0,332.0
16:22:28,-721.0,378.0,333.0
16:22:28,-721.0,378.0,333.0
16:22:28,-721.0,378.0,333.0
16:22:28,-721.0,378.0,333.0
16:22:28,-632.0,379.0,333.0
16:22:28,-632.0,379.0,333.0
16:22:28,-632.0,379.0,333.0
16:22:28,-632.0,379.0,333.0
16:22:28,-572.0,379.0,333.0
16:22:28,-572.0,379.0,333.0
16:22:28,-572.0,379.0,333.0
16:22:28,-572.0,379.0,333.0
16:22:28,-533.0,379.0,332.0
16:22:28,-533.0,379.0,332.0
16:22:28,-533.0,379.0,332.0
16:22:28,-533.0,379.0,332.0
16:22:28,-561.0,380.0,332.0
16:22:28,-561.0,380.0,332.0
16:22:28,-561.0,380.0,332.0
16:22:28,-561.0,380.0,332.0
16:22:28,-567.0,378.0,332.0
16:22:28,-567.0,378.0,332.0
16:22:28,-567.0,378.0,332.0
16:22:28,-567.0,378.0,332.0
16:22:28,-645.0,377.0,333.0
16:22:28,-645.0,377.0,333.0
16:22:28,-645.0,377.0,333.0
16:22:28,-645.0,377.0,333.0
16:22:28,-717.0,379.0,333.0
16:22:28,-717.0,379.0,333.0
16:22:28,-717.0,379.0,333.0
16:22:28,-717.0,379.0,333.0
16:22:28,-817.0,378.0,334.0
16:22:28,-817.0,378.0,334.0
16:22:28,-817.0,378.0,334.0
16:22:28,-817.0,378.0,334.0
16:22:28,-988.0,378.0,333.0
16:22:28,-988.0,378.0,333.0
16:22:28,-988.0,378.0,333.0
16:22:28,-988.0,378.0,333.0
16:22:28,-1100.0,377.0,333.0
16:22:28,-1100.0,377.0,333.0
16:22:28,-1100.0,377.0,333.0
16:22:28,-1100.0,377.0,333.0
16:22:28,-1188.0,377.0,333.0
16:22:28,-1188.0,377.0,333.0
16:22:28,-1188.0,377.0,333.0
16:22:28,-1188.0,377.0,333.0
16:22:28,-1178.0,377.0,331.0
16:22:28,-1178.0,377.0,331.0
16:22:28,-1178.0,377.0,331.0
16:22:28,-1178.0,377.0,331.0
16:22:28,-1278.0,379.0,331.0
16:22:28,-1278.0,379.0,331.0
16:22:28,-1278.0,379.0,331.0
16:22:28,-1278.0,379.0,331.0
16:22:28,-1269.0,377.0,331.0
16:22:28,-1269.0,377.0,331.0
16:22:28,-1269.0,377.0,331.0
16:22:28,-1269.0,377.0,331.0
16:22:28,-1126.0,377.0,332.0
16:22:28,-1126.0,377.0,332.0
16:22:28,-1126.0,377.0,332.0
16:22:28,-1126.0,377.0,332.0
16:22:28,-979.0,378.0,332.0
16:22:28,-979.0,378.0,332.0
16:22:28,-979.0,378.0,332.0
16:22:28,-979.0,378.0,332.0
16:22:28,-554.0,379.0,331.0
16:22:28,-554.0,379.0,331.0
16:22:28,-554.0,379.0,331.0
16:22:28,-554.0,379.0,331.0
16:22:28,-244.0,379.0,332.0
16:22:28,-244.0,379.0,332.0
16:22:29,-244.0,379.0,332.0
16:22:29,-244.0,379.0,332.0
16:22:29,-828.0,377.0,332.0
16:22:29,-828.0,377.0,332.0
16:22:29,-828.0,377.0,332.0
16:22:29,-828.0,377.0,332.0
16:22:29,-795.0,378.0,331.0
16:22:29,-795.0,378.0,331.0
16:22:29,-795.0,378.0,331.0
16:22:29,-795.0,378.0,331.0
16:22:29,-799.0,377.0,333.0
16:22:29,-799.0,377.0,333.0
16:22:29,-799.0,377.0,333.0
16:22:29,-799.0,377.0,333.0
16:22:29,-783.0,378.0,332.0
16:22:29,-783.0,378.0,332.0
16:22:29,-783.0,378.0,332.0
16:22:29,-783.0,378.0,332.0
16:22:29,-748.0,379.0,333.0
16:22:29,-748.0,379.0,333.0
16:22:29,-748.0,379.0,333.0
16:22:29,-748.0,379.0,333.0
16:22:29,-645.0,378.0,333.0
16:22:29,-645.0,378.0,333.0
16:22:29,-645.0,378.0,333.0
16:22:29,-645.0,378.0,333.0
16:22:29,-572.0,378.0,333.0
16:22:29,-572.0,378.0,333.0
16:22:29,-572.0,378.0,333.0
16:22:29,-572.0,378.0,333.0
16:22:29,-399.0,378.0,333.0
16:22:29,-399.0,378.0,333.0
16:22:29,-399.0,378.0,333.0
16:22:29,-399.0,378.0,333.0
16:22:29,-236.0,379.0,333.0
16:22:29,-236.0,379.0,333.0
16:22:29,-236.0,379.0,333.0
16:22:29,-236.0,379.0,333.0
16:22:29,-63.0,378.0,334.0
16:22:29,-63.0,378.0,334.0
16:22:29,-63.0,378.0,334.0
16:22:29,-63.0,378.0,334.0
16:22:29,-1.0,379.0,332.0
16:22:29,-1.0,379.0,332.0
16:22:29,-1.0,379.0,332.0
16:22:29,-1.0,379.0,332.0
16:22:29,-98.0,379.0,332.0
16:22:29,-98.0,379.0,332.0
16:22:29,-98.0,379.0,332.0
16:22:29,-98.0,379.0,332.0
16:22:29,-299.0,379.0,331.0
16:22:29,-299.0,379.0,331.0
16:22:29,-299.0,379.0,331.0
16:22:29,-299.0,379.0,331.0
16:22:29,-437.0,379.0,331.0
16:22:29,-437.0,379.0,331.0
16:22:29,-437.0,379.0,331.0
16:22:29,-437.0,379.0,331.0
16:22:29,-469.0,378.0,332.0
16:22:29,-469.0,378.0,332.0
16:22:29,-469.0,378.0,332.0
16:22:29,-469.0,378.0,332.0
16:22:29,-449.0,379.0,332.0
16:22:29,-449.0,379.0,332.0
16:22:29,-449.0,379.0,332.0
16:22:29,-449.0,379.0,332.0
16:22:29,-492.0,379.0,333.0
16:22:29,-492.0,379.0,333.0
16:22:29,-492.0,379.0,333.0
16:22:29,-492.0,379.0,333.0
16:22:29,-494.0,379.0,332.0
16:22:29,-494.0,379.0,332.0
16:22:29,-494.0,379.0,332.0
16:22:29,-494.0,379.0,332.0
16:22:29,-505.0,379.0,332.0
16:22:29,-505.0,379.0,332.0
16:22:29,-505.0,379.0,332.0
16:22:29,-505.0,379.0,332.0
16:22:29,-500.0,381.0,332.0
16:22:29,-500.0,381.0,332.0
16:22:29,-500.0,381.0,332.0
16:22:29,-500.0,381.0,332.0
16:22:29,-540.0,379.0,333.0
16:22:29,-540.0,379.0,333.0
16:22:29,-540.0,379.0,333.0
16:22:29,-540.0,379.0,333.0
16:22:29,-526.0,379.0,333.0
16:22:29,-526.0,379.0,333.0
16:22:29,-526.0,379.0,333.0
16:22:29,-526.0,379.0,333.0
16:22:29,-537.0,379.0,332.0
16:22:29,-537.0,379.0,332.0
16:22:29,-537.0,379.0,332.0
16:22:29,-537.0,379.0,332.0
16:22:29,-561.0,378.0,332.0
16:22:29,-561.0,378.0,332.0
16:22:29,-561.0,378.0,332.0
16:22:29,-561.0,378.0,332.0
16:22:29,-589.0,379.0,332.0
16:22:29,-589.0,379.0,332.0
16:22:29,-589.0,379.0,332.0
16:22:29,-589.0,379.0,332.0
16:22:29,-619.0,378.0,334.0
16:22:29,-619.0,378.0,334.0
16:22:29,-619.0,378.0,334.0
16:22:29,-619.0,378.0,334.0
16:22:29,-577.0,379.0,331.0
16:22:29,-577.0,379.0,331.0
16:22:29,-577.0,379.0,331.0
16:22:29,-577.0,379.0,331.0
16:22:29,-533.0,379.0,332.0
16:22:29,-533.0,379.0,332.0
16:22:29,-533.0,379.0,332.0
16:22:29,-533.0,379.0,332.0
16:22:29,-451.0,379.0,333.0
16:22:29,-451.0,379.0,333.0
16:22:29,-451.0,379.0,333.0
16:22:29,-451.0,379.0,333.0
16:22:29,-395.0,378.0,334.0
16:22:29,-395.0,378.0,334.0
16:22:29,-395.0,378.0,334.0
16:22:29,-395.0,378.0,334.0
16:22:29,-358.0,379.0,333.0
16:22:29,-358.0,379.0,333.0
16:22:29,-358.0,379.0,333.0
16:22:29,-358.0,379.0,333.0
16:22:29,-316.0,378.0,333.0
16:22:29,-316.0,378.0,333.0
16:22:29,-316.0,378.0,333.0
16:22:29,-316.0,378.0,333.0
16:22:29,-320.0,379.0,334.0
16:22:29,-320.0,379.0,334.0
16:22:29,-320.0,379.0,334.0
16:22:29,-320.0,379.0,334.0
16:22:29,-222.0,378.0,333.0
16:22:29,-222.0,378.0,333.0
16:22:29,-222.0,378.0,333.0
16:22:29,-222.0,378.0,333.0
16:22:29,-226.0,378.0,333.0
16:22:29,-226.0,378.0,333.0
16:22:29,-226.0,378.0,333.0
16:22:29,-226.0,378.0,333.0
16:22:29,-294.0,378.0,331.0
16:22:29,-294.0,378.0,331.0
16:22:29,-294.0,378.0,331.0
16:22:29,-294.0,378.0,331.0
16:22:29,-331.0,379.0,332.0
16:22:29,-331.0,379.0,332.0
16:22:29,-331.0,379.0,332.0
16:22:29,-331.0,379.0,332.0
16:22:29,-317.0,377.0,332.0
16:22:29,-317.0,377.0,332.0
16:22:29,-317.0,377.0,332.0
16:22:29,-317.0,377.0,332.0
16:22:29,-369.0,377.0,332.0
16:22:29,-369.0,377.0,332.0
16:22:29,-369.0,377.0,332.0
16:22:29,-369.0,377.0,332.0
16:22:29,550.0,377.0,331.0
16:22:29,550.0,377.0,331.0
16:22:29,550.0,377.0,331.0
16:22:29,550.0,377.0,331.0
16:22:29,-131.0,378.0,333.0
16:22:29,-131.0,378.0,333.0
16:22:29,-131.0,378.0,333.0
16:22:29,-131.0,378.0,333.0
16:22:29,-434.0,378.0,332.0
16:22:29,-434.0,378.0,332.0
16:22:29,-434.0,378.0,332.0
16:22:29,-434.0,378.0,332.0
16:22:29,-476.0,378.0,332.0
16:22:29,-476.0,378.0,332.0
16:22:29,-476.0,378.0,332.0
16:22:29,-476.0,378.0,332.0
16:22:29,-472.0,378.0,332.0
16:22:29,-472.0,378.0,332.0
16:22:29,-472.0,378.0,332.0
16:22:29,-472.0,378.0,332.0
16:22:29,-459.0,378.0,331.0
16:22:29,-459.0,378.0,331.0
16:22:29,-459.0,378.0,331.0
16:22:29,-459.0,378.0,331.0
16:22:29,-459.0,378.0,332.0
16:22:29,-459.0,378.0,332.0
16:22:29,-459.0,378.0,332.0
16:22:29,-459.0,378.0,332.0
16:22:29,-415.0,377.0,332.0
16:22:29,-415.0,377.0,332.0
16:22:29,-415.0,377.0,332.0
16:22:29,-415.0,377.0,332.0
16:22:29,-361.0,377.0,331.0
16:22:29,-361.0,377.0,331.0
16:22:29,-361.0,377.0,331.0
16:22:29,-361.0,377.0,331.0
16:22:29,-252.0,378.0,332.0
16:22:29,-252.0,378.0,332.0
16:22:29,-252.0,378.0,332.0
16:22:29,-252.0,378.0,332.0
16:22:29,-138.0,378.0,332.0
16:22:29,-138.0,378.0,332.0
16:22:29,-138.0,378.0,332.0
16:22:30,-138.0,378.0,332.0
16:22:30,-62.0,378.0,332.0
16:22:30,-62.0,378.0,332.0
16:22:30,-62.0,378.0,332.0
16:22:30,-62.0,378.0,332.0
16:22:30,-149.0,378.0,333.0
16:22:30,-149.0,378.0,333.0
16:22:30,-149.0,378.0,333.0
16:22:30,-149.0,378.0,333.0
16:22:30,-385.0,378.0,333.0
16:22:30,-385.0,378.0,333.0
16:22:30,-385.0,378.0,333.0
16:22:30,-385.0,378.0,333.0
16:22:30,-575.0,378.0,333.0
16:22:30,-575.0,378.0,333.0
16:22:30,-575.0,378.0,333.0
16:22:30,-575.0,378.0,333.0
16:22:30,-649.0,378.0,333.0
16:22:30,-649.0,378.0,333.0
16:22:30,-649.0,378.0,333.0
16:22:30,-649.0,378.0,333.0
16:22:30,-683.0,378.0,334.0
16:22:30,-683.0,378.0,334.0
16:22:30,-683.0,378.0,334.0
16:22:30,-683.0,378.0,334.0
16:22:30,-687.0,378.0,334.0
16:22:30,-687.0,378.0,334.0
16:22:30,-687.0,378.0,334.0
16:22:30,-687.0,378.0,334.0
16:22:30,-687.0,378.0,334.0
16:22:30,-687.0,378.0,334.0
16:22:30,-687.0,378.0,334.0
16:22:30,-687.0,378.0,334.0
16:22:30,-657.0,380.0,333.0
16:22:30,-657.0,380.0,333.0
16:22:30,-657.0,380.0,333.0
16:22:30,-657.0,380.0,333.0
16:22:30,-651.0,377.0,333.0
16:22:30,-651.0,377.0,333.0
16:22:30,-651.0,377.0,333.0
16:22:30,-651.0,377.0,333.0
16:22:30,-656.0,379.0,333.0
16:22:30,-656.0,379.0,333.0
16:22:30,-656.0,379.0,333.0
16:22:30,-656.0,379.0,333.0
16:22:30,-649.0,380.0,332.0
16:22:30,-649.0,380.0,332.0
16:22:30,-649.0,380.0,332.0
16:22:30,-649.0,380.0,332.0
16:22:30,-669.0,379.0,331.0
16:22:30,-669.0,379.0,331.0
16:22:30,-669.0,379.0,331.0
16:22:30,-669.0,379.0,331.0
16:22:30,-677.0,380.0,332.0
16:22:30,-677.0,380.0,332.0
16:22:30,-677.0,380.0,332.0
16:22:30,-677.0,380.0,332.0
16:22:30,-687.0,378.0,332.0
16:22:30,-687.0,378.0,332.0
16:22:30,-687.0,378.0,332.0
16:22:30,-687.0,378.0,332.0
16:22:30,-683.0,379.0,333.0
16:22:30,-683.0,379.0,333.0
16:22:30,-683.0,379.0,333.0
16:22:30,-683.0,379.0,333.0
16:22:30,-700.0,378.0,333.0
16:22:30,-700.0,378.0,333.0
16:22:30,-700.0,378.0,333.0
16:22:30,-700.0,378.0,333.0
16:22:30,-687.0,378.0,332.0
16:22:30,-687.0,378.0,332.0
16:22:30,-687.0,378.0,332.0
16:22:30,-687.0,378.0,332.0
16:22:30,-665.0,379.0,332.0
16:22:30,-665.0,379.0,332.0
16:22:30,-665.0,379.0,332.0
16:22:30,-665.0,379.0,332.0
16:22:30,-640.0,380.0,332.0
16:22:30,-640.0,380.0,332.0
16:22:30,-640.0,380.0,332.0
16:22:30,-640.0,380.0,332.0
16:22:30,-623.0,379.0,332.0
16:22:30,-623.0,379.0,332.0
16:22:30,-623.0,379.0,332.0
16:22:30,-623.0,379.0,332.0
16:22:30,-578.0,378.0,334.0
16:22:30,-578.0,378.0,334.0
16:22:30,-578.0,378.0,334.0
16:22:30,-578.0,378.0,334.0
16:22:30,-497.0,379.0,333.0
16:22:30,-497.0,379.0,333.0
16:22:30,-497.0,379.0,333.0
16:22:30,-497.0,379.0,333.0
16:22:30,-515.0,379.0,332.0
16:22:30,-515.0,379.0,332.0
16:22:30,-515.0,379.0,332.0
16:22:30,-515.0,379.0,332.0
16:22:30,-587.0,378.0,333.0
16:22:30,-587.0,378.0,333.0
16:22:30,-587.0,378.0,333.0
16:22:30,-587.0,378.0,333.0
16:22:30,-609.0,378.0,332.0
16:22:30,-609.0,378.0,332.0
16:22:30,-609.0,378.0,332.0
16:22:30,-609.0,378.0,332.0
16:22:30,-618.0,377.0,331.0
16:22:30,-618.0,377.0,331.0
16:22:30,-618.0,377.0,331.0
16:22:30,-618.0,377.0,331.0
16:22:30,-613.0,377.0,332.0
16:22:30,-613.0,377.0,332.0
16:22:30,-613.0,377.0,332.0
16:22:30,-613.0,377.0,332.0
16:22:30,222.0,378.0,332.0
16:22:30,222.0,378.0,332.0
16:22:30,222.0,378.0,332.0
16:22:30,222.0,378.0,332.0
16:22:30,-417.0,378.0,331.0
16:22:30,-417.0,378.0,331.0
16:22:30,-417.0,378.0,331.0
16:22:30,-417.0,378.0,331.0
16:22:30,-613.0,378.0,333.0
16:22:30,-613.0,378.0,333.0
16:22:30,-613.0,378.0,333.0
16:22:30,-613.0,378.0,333.0
16:22:30,-568.0,379.0,334.0
16:22:30,-568.0,379.0,334.0
16:22:30,-568.0,379.0,334.0
16:22:30,-568.0,379.0,334.0
16:22:30,-546.0,378.0,333.0
16:22:30,-546.0,378.0,333.0
16:22:30,-546.0,378.0,333.0
16:22:30,-546.0,378.0,333.0
16:22:30,-489.0,377.0,333.0
16:22:30,-489.0,377.0,333.0
16:22:30,-489.0,377.0,333.0
16:22:30,-489.0,377.0,333.0
16:22:30,-448.0,378.0,333.0
16:22:30,-448.0,378.0,333.0
16:22:30,-448.0,378.0,333.0
16:22:30,-448.0,378.0,333.0
16:22:30,-411.0,377.0,334.0
16:22:30,-411.0,377.0,334.0
16:22:30,-411.0,377.0,334.0
16:22:30,-411.0,377.0,334.0
16:22:30,-334.0,378.0,334.0
16:22:30,-334.0,378.0,334.0
16:22:30,-334.0,378.0,334.0
16:22:30,-334.0,378.0,334.0
16:22:30,-239.0,379.0,333.0
16:22:30,-239.0,379.0,333.0
16:22:30,-239.0,379.0,333.0
16:22:30,-239.0,379.0,333.0
16:22:30,-96.0,379.0,332.0
16:22:30,-96.0,379.0,332.0
16:22:30,-96.0,379.0,332.0
16:22:30,-96.0,379.0,332.0
16:22:30,-22.0,378.0,333.0
16:22:30,-22.0,378.0,333.0
16:22:30,-22.0,378.0,333.0
16:22:30,-22.0,378.0,333.0
16:22:30,-125.0,379.0,333.0
16:22:30,-125.0,379.0,333.0
16:22:30,-125.0,379.0,333.0
16:22:30,-125.0,379.0,333.0
16:22:30,-358.0,380.0,333.0
16:22:30,-358.0,380.0,333.0
16:22:30,-358.0,380.0,333.0
16:22:30,-358.0,380.0,333.0
16:22:30,-545.0,379.0,333.0
16:22:30,-545.0,379.0,333.0
16:22:30,-545.0,379.0,333.0
16:22:30,-545.0,379.0,333.0
16:22:30,-620.0,377.0,333.0
16:22:30,-620.0,377.0,333.0
16:22:30,-620.0,377.0,333.0
16:22:30,-620.0,377.0,333.0
16:22:30,-665.0,380.0,332.0
16:22:30,-665.0,380.0,332.0
16:22:30,-665.0,380.0,332.0
16:22:30,-665.0,380.0,332.0
16:22:30,-651.0,378.0,332.0
16:22:30,-651.0,378.0,332.0
16:22:30,-651.0,378.0,332.0
16:22:30,-651.0,378.0,332.0
16:22:30,-628.0,378.0,334.0
16:22:30,-628.0,378.0,334.0
16:22:30,-628.0,378.0,334.0
16:22:30,-628.0,378.0,334.0
16:22:30,-583.0,379.0,334.0
16:22:30,-583.0,379.0,334.0
16:22:30,-583.0,379.0,334.0
16:22:30,-583.0,379.0,334.0
16:22:30,-556.0,379.0,332.0
16:22:30,-556.0,379.0,332.0
16:22:30,-556.0,379.0,332.0
16:22:30,-556.0,379.0,332.0
16:22:30,-524.0,379.0,332.0
16:22:30,-524.0,379.0,332.0
16:22:30,-524.0,379.0,332.0
16:22:30,-524.0,379.0,332.0
16:22:31,-513.0,378.0,332.0
16:22:31,-513.0,378.0,332.0
16:22:31,-513.0,378.0,332.0
16:22:31,-513.0,378.0,332.0
16:22:31,-521.0,379.0,333.0
16:22:31,-521.0,379.0,333.0
16:22:31,-521.0,379.0,333.0
16:22:31,-521.0,379.0,333.0
16:22:31,-499.0,379.0,332.0
16:22:31,-499.0,379.0,332.0
16:22:31,-499.0,379.0,332.0
16:22:31,-499.0,379.0,332.0
16:22:31,-522.0,379.0,332.0
16:22:31,-522.0,379.0,332.0
16:22:31,-522.0,379.0,332.0
16:22:31,-522.0,379.0,332.0
16:22:31,-539.0,378.0,333.0
16:22:31,-539.0,378.0,333.0
16:22:31,-539.0,378.0,333.0
16:22:31,-539.0,378.0,333.0
16:22:31,-521.0,378.0,332.0
16:22:31,-521.0,378.0,332.0
16:22:31,-521.0,378.0,332.0
16:22:31,-521.0,378.0,332.0
16:22:31,-494.0,378.0,333.0
16:22:31,-494.0,378.0,333.0
16:22:31,-494.0,378.0,333.0
16:22:31,-494.0,378.0,333.0
16:22:31,-483.0,378.0,332.0
16:22:31,-483.0,378.0,332.0
16:22:31,-483.0,378.0,332.0
16:22:31,-483.0,378.0,332.0
16:22:31,-496.0,379.0,332.0
16:22:31,-496.0,379.0,332.0
16:22:31,-496.0,379.0,332.0
16:22:31,-496.0,379.0,332.0
16:22:31,-453.0,378.0,333.0
16:22:31,-453.0,378.0,333.0
16:22:31,-453.0,378.0,333.0
16:22:31,-453.0,378.0,333.0
16:22:31,-437.0,380.0,334.0
16:22:31,-437.0,380.0,334.0
16:22:31,-437.0,380.0,334.0
16:22:31,-437.0,380.0,334.0
16:22:31,-385.0,379.0,334.0
16:22:31,-385.0,379.0,334.0
16:22:31,-385.0,379.0,334.0
16:22:31,-385.0,379.0,334.0
16:22:31,-351.0,379.0,332.0
16:22:31,-351.0,379.0,332.0
16:22:31,-351.0,379.0,332.0
16:22:31,-351.0,379.0,332.0
16:22:31,-443.0,378.0,333.0
16:22:31,-443.0,378.0,333.0
16:22:31,-443.0,378.0,333.0
16:22:31,-443.0,378.0,333.0
16:22:31,-465.0,378.0,333.0
16:22:31,-465.0,378.0,333.0
16:22:31,-465.0,378.0,333.0
16:22:31,-465.0,378.0,333.0
16:22:31,-408.0,378.0,333.0
16:22:31,-408.0,378.0,333.0
16:22:31,-408.0,378.0,333.0
16:22:31,-408.0,378.0,333.0
16:22:31,-427.0,376.0,332.0
16:22:31,-427.0,376.0,332.0
16:22:31,-427.0,376.0,332.0
16:22:31,-427.0,376.0,332.0
16:22:31,528.0,377.0,331.0
16:22:31,528.0,377.0,331.0
16:22:31,528.0,377.0,331.0
16:22:31,528.0,377.0,331.0
16:22:31,25.0,378.0,332.0
16:22:31,25.0,378.0,332.0
16:22:31,25.0,378.0,332.0
16:22:31,25.0,378.0,332.0
16:22:31,-217.0,377.0,332.0
16:22:31,-217.0,377.0,332.0
16:22:31,-217.0,377.0,332.0
16:22:31,-217.0,377.0,332.0
16:22:31,-154.0,378.0,332.0
16:22:31,-154.0,378.0,332.0
16:22:31,-154.0,378.0,332.0
16:22:31,-154.0,378.0,332.0
16:22:31,-58.0,380.0,331.0
16:22:31,-58.0,380.0,331.0
16:22:31,-58.0,380.0,331.0
16:22:31,-58.0,380.0,331.0
16:22:31,48.0,379.0,333.0
16:22:31,48.0,379.0,333.0
16:22:31,48.0,379.0,333.0
16:22:31,48.0,379.0,333.0
16:22:31,154.0,378.0,333.0
16:22:31,154.0,378.0,333.0
16:22:31,154.0,378.0,333.0
16:22:31,154.0,378.0,333.0
16:22:31,185.0,378.0,332.0
16:22:31,185.0,378.0,332.0
16:22:31,185.0,378.0,332.0
16:22:31,185.0,378.0,332.0
16:22:31,251.0,378.0,334.0
16:22:31,251.0,378.0,334.0
16:22:31,251.0,378.0,334.0
16:22:31,251.0,378.0,334.0
16:22:31,326.0,378.0,333.0
16:22:31,326.0,378.0,333.0
16:22:31,326.0,378.0,333.0
16:22:31,326.0,378.0,333.0
16:22:31,425.0,377.0,333.0
16:22:31,425.0,377.0,333.0
16:22:31,425.0,377.0,333.0
16:22:31,425.0,377.0,333.0
16:22:31,458.0,378.0,333.0
16:22:31,458.0,378.0,333.0
16:22:31,458.0,378.0,333.0
16:22:31,458.0,378.0,333.0
16:22:31,301.0,377.0,333.0
16:22:31,301.0,377.0,333.0
16:22:31,301.0,377.0,333.0
16:22:31,301.0,377.0,333.0
16:22:31,34.0,377.0,333.0
16:22:31,34.0,377.0,333.0
16:22:31,34.0,377.0,333.0
16:22:31,34.0,377.0,333.0
16:22:31,-203.0,378.0,334.0
16:22:31,-203.0,378.0,334.0
16:22:31,-203.0,378.0,334.0
16:22:31,-203.0,378.0,334.0
16:22:31,-405.0,377.0,333.0
16:22:31,-405.0,377.0,333.0
16:22:31,-405.0,377.0,333.0
16:22:31,-405.0,377.0,333.0
16:22:31,-463.0,379.0,333.0
16:22:31,-463.0,379.0,333.0
16:22:31,-463.0,379.0,333.0
16:22:31,-463.0,379.0,333.0
16:22:31,-474.0,378.0,332.0
16:22:31,-474.0,378.0,332.0
16:22:31,-474.0,378.0,332.0
16:22:31,-474.0,378.0,332.0
16:22:31,-496.0,378.0,331.0
16:22:31,-496.0,378.0,331.0
16:22:31,-496.0,378.0,331.0
16:22:31,-496.0,378.0,331.0
16:22:31,-493.0,378.0,332.0
16:22:31,-493.0,378.0,332.0
16:22:31,-493.0,378.0,332.0
16:22:31,-493.0,378.0,332.0
16:22:31,-495.0,377.0,332.0
16:22:31,-495.0,377.0,332.0
16:22:31,-495.0,377.0,332.0
16:22:31,-495.0,377.0,332.0
16:22:31,-498.0,379.0,332.0
16:22:31,-498.0,379.0,332.0
16:22:31,-498.0,379.0,332.0
16:22:31,-498.0,379.0,332.0
16:22:31,-456.0,378.0,333.0
16:22:31,-456.0,378.0,333.0
16:22:31,-456.0,378.0,333.0
16:22:31,-456.0,378.0,333.0
16:22:31,-474.0,378.0,334.0
16:22:31,-474.0,378.0,334.0
16:22:31,-474.0,378.0,334.0
16:22:31,-474.0,378.0,334.0
16:22:31,-520.0,379.0,332.0
16:22:31,-520.0,379.0,332.0
16:22:31,-520.0,379.0,332.0
16:22:31,-520.0,379.0,332.0
16:22:31,-500.0,379.0,331.0
16:22:31,-500.0,379.0,331.0
16:22:31,-500.0,379.0,331.0
16:22:31,-500.0,379.0,331.0
16:22:31,-497.0,379.0,331.0
16:22:31,-497.0,379.0,331.0
16:22:31,-497.0,379.0,331.0
16:22:31,-497.0,379.0,331.0
16:22:31,-537.0,379.0,331.0
16:22:31,-537.0,379.0,331.0
16:22:31,-537.0,379.0,331.0
16:22:31,-537.0,379.0,331.0
16:22:31,-519.0,378.0,332.0
16:22:31,-519.0,378.0,332.0
16:22:31,-519.0,378.0,332.0
16:22:31,-519.0,378.0,332.0
16:22:31,-519.0,377.0,332.0
16:22:31,-519.0,377.0,332.0
16:22:31,-519.0,377.0,332.0
16:22:31,-519.0,377.0,332.0
16:22:31,-491.0,379.0,331.0
16:22:31,-491.0,379.0,331.0
16:22:31,-491.0,379.0,331.0
16:22:31,-491.0,379.0,331.0
16:22:31,-474.0,378.0,333.0
16:22:31,-474.0,378.0,333.0
16:22:31,-474.0,378.0,333.0
16:22:31,-474.0,378.0,333.0
16:22:31,-474.0,377.0,334.0
16:22:31,-474.0,377.0,334.0
16:22:31,-474.0,377.0,334.0
16:22:31,-474.0,377.0,334.0
16:22:31,-436.0,380.0,332.0
16:22:32,-436.0,380.0,332.0
16:22:32,-436.0,380.0,332.0
16:22:32,-436.0,380.0,332.0
16:22:32,-397.0,378.0,332.0
16:22:32,-397.0,378.0,332.0
16:22:32,-397.0,378.0,332.0
16:22:32,-397.0,378.0,332.0
16:22:32,-399.0,378.0,333.0
16:22:32,-399.0,378.0,333.0
16:22:32,-399.0,378.0,333.0
16:22:32,-399.0,378.0,333.0
16:22:32,-303.0,378.0,333.0
16:22:32,-303.0,378.0,333.0
16:22:32,-303.0,378.0,333.0
16:22:32,-303.0,378.0,333.0
16:22:32,-386.0,380.0,333.0
16:22:32,-386.0,380.0,333.0
16:22:32,-386.0,380.0,333.0
16:22:32,-386.0,380.0,333.0
16:22:32,-411.0,379.0,332.0
16:22:32,-411.0,379.0,332.0
16:22:32,-411.0,379.0,332.0
16:22:32,-411.0,379.0,332.0
16:22:32,-401.0,378.0,333.0
16:22:32,-401.0,378.0,333.0
16:22:32,-401.0,378.0,333.0
16:22:32,-401.0,378.0,333.0
16:22:32,-429.0,379.0,332.0
16:22:32,-429.0,379.0,332.0
16:22:32,-429.0,379.0,332.0
16:22:32,-429.0,379.0,332.0
16:22:32,81.0,378.0,332.0
16:22:32,81.0,378.0,332.0
16:22:32,81.0,378.0,332.0
16:22:32,81.0,378.0,332.0
16:22:32,221.0,378.0,333.0
16:22:32,221.0,378.0,333.0
16:22:32,221.0,378.0,333.0
16:22:32,221.0,378.0,333.0
16:22:32,-442.0,378.0,332.0
16:22:32,-442.0,378.0,332.0
16:22:32,-442.0,378.0,332.0
16:22:32,-442.0,378.0,332.0
16:22:32,-405.0,378.0,332.0
16:22:32,-405.0,378.0,332.0
16:22:32,-405.0,378.0,332.0
16:22:32,-405.0,378.0,332.0
16:22:32,-371.0,378.0,333.0
16:22:32,-371.0,378.0,333.0
16:22:32,-371.0,378.0,333.0
16:22:32,-371.0,378.0,333.0
16:22:32,-306.0,377.0,334.0
16:22:32,-306.0,377.0,334.0
16:22:32,-306.0,377.0,334.0
16:22:32,-306.0,377.0,334.0
16:22:32,-277.0,378.0,333.0
16:22:32,-277.0,378.0,333.0
16:22:32,-277.0,378.0,333.0
16:22:32,-277.0,378.0,333.0
16:22:32,-233.0,379.0,333.0
16:22:32,-233.0,379.0,333.0
16:22:32,-233.0,379.0,333.0
16:22:32,-233.0,379.0,333.0
16:22:32,-178.0,379.0,332.0
16:22:32,-178.0,379.0,332.0
16:22:32,-178.0,379.0,332.0
16:22:32,-178.0,379.0,332.0
16:22:32,-100.0,378.0,333.0
16:22:32,-100.0,378.0,333.0
16:22:32,-100.0,378.0,333.0
16:22:32,-100.0,378.0,333.0
16:22:32,43.0,380.0,332.0
16:22:32,43.0,380.0,332.0
16:22:32,43.0,380.0,332.0
16:22:32,43.0,380.0,332.0
16:22:32,160.0,379.0,332.0
16:22:32,160.0,379.0,332.0
16:22:32,160.0,379.0,332.0
16:22:32,160.0,379.0,332.0
16:22:32,167.0,379.0,332.0
16:22:32,167.0,379.0,332.0
16:22:32,167.0,379.0,332.0
16:22:32,167.0,379.0,332.0
16:22:32,28.0,378.0,334.0
16:22:32,28.0,378.0,334.0
16:22:32,28.0,378.0,334.0
16:22:32,28.0,378.0,334.0
16:22:32,-202.0,377.0,333.0
16:22:32,-202.0,377.0,333.0
16:22:32,-202.0,377.0,333.0
16:22:32,-202.0,377.0,333.0
16:22:32,-334.0,379.0,332.0
16:22:32,-334.0,379.0,332.0
16:22:32,-334.0,379.0,332.0
16:22:32,-334.0,379.0,332.0
16:22:32,-371.0,379.0,333.0
16:22:32,-371.0,379.0,333.0
16:22:32,-371.0,379.0,333.0
16:22:32,-371.0,379.0,333.0
16:22:32,-360.0,379.0,331.0
16:22:32,-360.0,379.0,331.0
16:22:32,-360.0,379.0,331.0
16:22:32,-360.0,379.0,331.0
16:22:32,-328.0,379.0,333.0
16:22:32,-328.0,379.0,333.0
16:22:32,-328.0,379.0,333.0
16:22:32,-328.0,379.0,333.0
16:22:32,-218.0,379.0,333.0
16:22:32,-218.0,379.0,333.0
16:22:32,-218.0,379.0,333.0
16:22:32,-218.0,379.0,333.0
16:22:32,-137.0,379.0,333.0
16:22:32,-137.0,379.0,333.0
16:22:32,-137.0,379.0,333.0
16:22:32,-137.0,379.0,333.0
16:22:32,-27.0,379.0,332.0
16:22:32,-27.0,379.0,332.0
16:22:32,-27.0,379.0,332.0
16:22:32,-27.0,379.0,332.0
16:22:32,-19.0,379.0,333.0
16:22:32,-19.0,379.0,333.0
16:22:32,-19.0,379.0,333.0
16:22:32,-19.0,379.0,333.0
16:22:32,68.0,378.0,332.0
16:22:32,68.0,378.0,332.0
16:22:32,68.0,378.0,332.0
16:22:32,68.0,378.0,332.0
16:22:32,78.0,378.0,333.0
16:22:32,78.0,378.0,333.0
16:22:32,78.0,378.0,333.0
16:22:32,78.0,378.0,333.0
16:22:32,62.0,377.0,333.0
16:22:32,62.0,377.0,333.0
16:22:32,62.0,377.0,333.0
16:22:32,62.0,377.0,333.0
16:22:32,54.0,380.0,332.0
16:22:32,54.0,380.0,332.0
16:22:32,54.0,380.0,332.0
16:22:32,54.0,380.0,332.0
16:22:32,17.0,378.0,334.0
16:22:32,17.0,378.0,334.0
16:22:32,17.0,378.0,334.0
16:22:32,17.0,378.0,334.0
16:22:32,-13.0,378.0,334.0
16:22:32,-13.0,378.0,334.0
16:22:32,-13.0,378.0,334.0
16:22:32,-13.0,378.0,334.0
16:22:32,-25.0,379.0,332.0
16:22:32,-25.0,379.0,332.0
16:22:32,-25.0,379.0,332.0
16:22:32,-25.0,379.0,332.0
16:22:32,-6.0,378.0,333.0
16:22:32,-6.0,378.0,333.0
16:22:32,-6.0,378.0,333.0
16:22:32,-6.0,378.0,333.0
16:22:32,127.0,379.0,333.0
16:22:32,127.0,379.0,333.0
16:22:32,127.0,379.0,333.0
16:22:32,127.0,379.0,333.0
16:22:32,293.0,380.0,332.0
16:22:32,293.0,380.0,332.0
16:22:32,293.0,380.0,332.0
16:22:32,293.0,380.0,332.0
16:22:32,393.0,379.0,333.0
16:22:32,393.0,379.0,333.0
16:22:32,393.0,379.0,333.0
16:22:32,393.0,379.0,333.0
16:22:32,198.0,379.0,334.0
16:22:32,198.0,379.0,334.0
16:22:32,198.0,379.0,334.0
16:22:32,198.0,379.0,334.0
16:22:32,-185.0,378.0,335.0
16:22:32,-185.0,378.0,335.0
16:22:32,-185.0,378.0,335.0
16:22:32,-185.0,378.0,335.0
16:22:32,-429.0,378.0,334.0
16:22:32,-429.0,378.0,334.0
16:22:32,-429.0,378.0,334.0
16:22:32,-429.0,378.0,334.0
16:22:32,-508.0,379.0,332.0
16:22:32,-508.0,379.0,332.0
16:22:32,-508.0,379.0,332.0
16:22:32,-508.0,379.0,332.0
16:22:32,-604.0,379.0,332.0
16:22:32,-604.0,379.0,332.0
16:22:32,-604.0,379.0,332.0
16:22:32,-604.0,379.0,332.0
16:22:32,195.0,380.0,333.0
16:22:32,195.0,380.0,333.0
16:22:32,195.0,380.0,333.0
16:22:32,195.0,380.0,333.0
16:22:32,-495.0,378.0,333.0
16:22:32,-495.0,378.0,333.0
16:22:32,-495.0,378.0,333.0
16:22:32,-495.0,378.0,333.0
16:22:32,-698.0,379.0,334.0
16:22:32,-698.0,379.0,334.0
16:22:32,-698.0,379.0,334.0
16:22:32,-698.0,379.0,334.0
16:22:32,-655.0,379.0,333.0
16:22:32,-655.0,379.0,333.0
16:22:33,-655.0,379.0,333.0
16:22:33,-655.0,379.0,333.0
16:22:33,-619.0,380.0,332.0
16:22:33,-619.0,380.0,332.0
16:22:33,-619.0,380.0,332.0
16:22:33,-619.0,380.0,332.0
16:22:33,-556.0,379.0,331.0
16:22:33,-556.0,379.0,331.0
16:22:33,-556.0,379.0,331.0
16:22:33,-556.0,379.0,331.0
16:22:33,-484.0,380.0,333.0
16:22:33,-484.0,380.0,333.0
16:22:33,-484.0,380.0,333.0
16:22:33,-484.0,380.0,333.0
16:22:33,-428.0,377.0,333.0
16:22:33,-428.0,377.0,333.0
16:22:33,-428.0,377.0,333.0
16:22:33,-428.0,377.0,333.0
16:22:33,-360.0,379.0,332.0
16:22:33,-360.0,379.0,332.0
16:22:33,-360.0,379.0,332.0
16:22:33,-360.0,379.0,332.0
16:22:33,-257.0,379.0,333.0
16:22:33,-257.0,379.0,333.0
16:22:33,-257.0,379.0,333.0
16:22:33,-257.0,379.0,333.0
16:22:33,-91.0,379.0,333.0
16:22:33,-91.0,379.0,333.0
16:22:33,-91.0,379.0,333.0
16:22:33,-91.0,379.0,333.0
16:22:33,-11.0,378.0,332.0
16:22:33,-11.0,378.0,332.0
