Wed Apr 16 16:36:04 IST 2025
TimeStamp,ECG,PPG
16:36:04,-1641.0,312.0,309.0
16:36:04,-1641.0,312.0,309.0
16:36:04,-1641.0,312.0,309.0
16:36:04,-1632.0,311.0,310.0
16:36:04,-1632.0,311.0,310.0
16:36:04,-1632.0,311.0,310.0
16:36:04,-1632.0,311.0,310.0
16:36:04,-1639.0,311.0,309.0
16:36:04,-1639.0,311.0,309.0
16:36:04,-1639.0,311.0,309.0
16:36:04,-1639.0,311.0,309.0
16:36:04,-1610.0,311.0,310.0
16:36:04,-1610.0,311.0,310.0
16:36:04,-1610.0,311.0,310.0
16:36:04,-1610.0,311.0,310.0
16:36:04,-1588.0,310.0,310.0
16:36:04,-1588.0,310.0,310.0
16:36:04,-1588.0,310.0,310.0
16:36:04,-1588.0,310.0,310.0
16:36:04,-1564.0,312.0,309.0
16:36:04,-1564.0,312.0,309.0
16:36:04,-1564.0,312.0,309.0
16:36:04,-1564.0,312.0,309.0
16:36:04,-1668.0,312.0,308.0
16:36:04,-1668.0,312.0,308.0
16:36:04,-1668.0,312.0,308.0
16:36:04,-1668.0,312.0,308.0
16:36:04,-1651.0,311.0,309.0
16:36:04,-1651.0,311.0,309.0
16:36:04,-1651.0,311.0,309.0
16:36:04,-1651.0,311.0,309.0
16:36:04,-1664.0,313.0,309.0
16:36:04,-1664.0,313.0,309.0
16:36:04,-1664.0,313.0,309.0
16:36:04,-1664.0,313.0,309.0
16:36:04,-1707.0,312.0,310.0
16:36:04,-1707.0,312.0,310.0
16:36:04,-1707.0,312.0,310.0
16:36:04,-1707.0,312.0,310.0
16:36:04,-1788.0,312.0,311.0
16:36:04,-1788.0,312.0,311.0
16:36:04,-1788.0,312.0,311.0
16:36:04,-1788.0,312.0,311.0
16:36:04,-424.0,312.0,309.0
16:36:04,-424.0,312.0,309.0
16:36:04,-424.0,312.0,309.0
16:36:04,-424.0,312.0,309.0
16:36:04,-1338.0,311.0,311.0
16:36:04,-1338.0,311.0,311.0
16:36:04,-1338.0,311.0,311.0
16:36:04,-1338.0,311.0,311.0
16:36:04,-1694.0,311.0,309.0
16:36:04,-1694.0,311.0,309.0
16:36:04,-1694.0,311.0,309.0
16:36:04,-1694.0,311.0,309.0
16:36:04,-1731.0,311.0,308.0
16:36:04,-1731.0,311.0,308.0
16:36:04,-1731.0,311.0,308.0
16:36:04,-1731.0,311.0,308.0
16:36:04,-1685.0,312.0,309.0
16:36:04,-1685.0,312.0,309.0
16:36:04,-1685.0,312.0,309.0
16:36:04,-1685.0,312.0,309.0
16:36:04,-1676.0,312.0,310.0
16:36:04,-1676.0,312.0,310.0
16:36:04,-1676.0,312.0,310.0
16:36:04,-1676.0,312.0,310.0
16:36:04,-1638.0,312.0,309.0
16:36:04,-1638.0,312.0,309.0
16:36:04,-1638.0,312.0,309.0
16:36:04,-1638.0,312.0,309.0
16:36:04,-1569.0,313.0,308.0
16:36:04,-1569.0,313.0,308.0
16:36:04,-1569.0,313.0,308.0
16:36:04,-1569.0,313.0,308.0
16:36:04,-1504.0,311.0,310.0
16:36:04,-1504.0,311.0,310.0
16:36:04,-1504.0,311.0,310.0
16:36:04,-1504.0,311.0,310.0
16:36:04,-1427.0,311.0,308.0
16:36:04,-1427.0,311.0,308.0
16:36:04,-1427.0,311.0,308.0
16:36:04,-1427.0,311.0,308.0
16:36:04,-1418.0,311.0,310.0
16:36:04,-1418.0,311.0,310.0
16:36:04,-1418.0,311.0,310.0
16:36:04,-1418.0,311.0,310.0
16:36:04,-1504.0,311.0,311.0
16:36:04,-1504.0,311.0,311.0
16:36:04,-1504.0,311.0,311.0
16:36:04,-1504.0,311.0,311.0
16:36:04,-1654.0,312.0,310.0
16:36:04,-1654.0,312.0,310.0
16:36:04,-1654.0,312.0,310.0
16:36:04,-1654.0,312.0,310.0
16:36:04,-1765.0,310.0,311.0
16:36:04,-1765.0,310.0,311.0
16:36:04,-1765.0,310.0,311.0
16:36:04,-1765.0,310.0,311.0
16:36:04,-1768.0,313.0,310.0
16:36:04,-1768.0,313.0,310.0
16:36:04,-1768.0,313.0,310.0
16:36:04,-1768.0,313.0,310.0
16:36:04,-1784.0,312.0,310.0
16:36:04,-1784.0,312.0,310.0
16:36:04,-1784.0,312.0,310.0
16:36:04,-1784.0,312.0,310.0
16:36:04,-1756.0,311.0,309.0
16:36:04,-1756.0,311.0,309.0
16:36:04,-1756.0,311.0,309.0
16:36:04,-1756.0,311.0,309.0
16:36:04,-1773.0,313.0,310.0
16:36:04,-1773.0,313.0,310.0
16:36:04,-1773.0,313.0,310.0
16:36:04,-1773.0,313.0,310.0
16:36:04,-1748.0,310.0,310.0
16:36:04,-1748.0,310.0,310.0
16:36:04,-1748.0,310.0,310.0
16:36:04,-1748.0,310.0,310.0
16:36:04,-1753.0,311.0,310.0
16:36:04,-1753.0,311.0,310.0
16:36:04,-1753.0,311.0,310.0
16:36:04,-1753.0,311.0,310.0
16:36:04,-1735.0,311.0,310.0
16:36:04,-1735.0,311.0,310.0
16:36:04,-1735.0,311.0,310.0
16:36:04,-1735.0,311.0,310.0
16:36:04,-1763.0,311.0,309.0
16:36:04,-1763.0,311.0,309.0
16:36:04,-1763.0,311.0,309.0
16:36:04,-1763.0,311.0,309.0
16:36:04,-1773.0,310.0,310.0
16:36:04,-1773.0,310.0,310.0
16:36:04,-1773.0,310.0,310.0
16:36:04,-1773.0,310.0,310.0
16:36:04,-1740.0,311.0,310.0
16:36:04,-1740.0,311.0,310.0
16:36:04,-1740.0,311.0,310.0
16:36:04,-1740.0,311.0,310.0
16:36:04,-1746.0,311.0,310.0
16:36:04,-1746.0,311.0,310.0
16:36:04,-1746.0,311.0,310.0
16:36:04,-1746.0,311.0,310.0
16:36:04,-1729.0,310.0,308.0
16:36:04,-1729.0,310.0,308.0
16:36:04,-1729.0,310.0,308.0
16:36:04,-1729.0,310.0,308.0
16:36:04,-1746.0,311.0,309.0
16:36:04,-1746.0,311.0,309.0
16:36:04,-1746.0,311.0,309.0
16:36:04,-1746.0,311.0,309.0
16:36:04,-1706.0,311.0,310.0
16:36:04,-1706.0,311.0,310.0
16:36:04,-1706.0,311.0,310.0
16:36:04,-1706.0,311.0,310.0
16:36:04,-1674.0,312.0,309.0
16:36:04,-1674.0,312.0,309.0
16:36:04,-1674.0,312.0,309.0
16:36:04,-1674.0,312.0,309.0
16:36:04,-1745.0,312.0,309.0
16:36:04,-1745.0,312.0,309.0
16:36:04,-1745.0,312.0,309.0
16:36:04,-1745.0,312.0,309.0
16:36:04,-1778.0,311.0,309.0
16:36:04,-1778.0,311.0,309.0
16:36:04,-1778.0,311.0,309.0
16:36:04,-1778.0,311.0,309.0
16:36:04,-1759.0,311.0,310.0
16:36:04,-1759.0,311.0,310.0
16:36:04,-1759.0,311.0,310.0
16:36:05,-1759.0,311.0,310.0
16:36:05,-1774.0,311.0,310.0
16:36:05,-1774.0,311.0,310.0
16:36:05,-1774.0,311.0,310.0
16:36:05,-1774.0,311.0,310.0
16:36:05,-1979.0,310.0,311.0
16:36:05,-1979.0,310.0,311.0
16:36:05,-1979.0,310.0,311.0
16:36:05,-1979.0,310.0,311.0
16:36:05,-594.0,312.0,310.0
16:36:05,-594.0,312.0,310.0
16:36:05,-594.0,312.0,310.0
16:36:05,-594.0,312.0,310.0
16:36:05,-995.0,311.0,310.0
16:36:05,-995.0,311.0,310.0
16:36:05,-995.0,311.0,310.0
16:36:05,-995.0,311.0,310.0
16:36:05,-1727.0,310.0,309.0
16:36:05,-1727.0,310.0,309.0
16:36:05,-1727.0,310.0,309.0
16:36:05,-1727.0,310.0,309.0
16:36:05,-1806.0,310.0,308.0
16:36:05,-1806.0,310.0,308.0
16:36:05,-1806.0,310.0,308.0
16:36:05,-1806.0,310.0,308.0
16:36:05,-1803.0,312.0,309.0
16:36:05,-1803.0,312.0,309.0
16:36:05,-1803.0,312.0,309.0
16:36:05,-1803.0,312.0,309.0
16:36:05,-1791.0,312.0,309.0
16:36:05,-1791.0,312.0,309.0
16:36:05,-1791.0,312.0,309.0
16:36:05,-1791.0,312.0,309.0
16:36:05,-1752.0,312.0,308.0
16:36:05,-1752.0,312.0,308.0
16:36:05,-1752.0,312.0,308.0
16:36:05,-1752.0,312.0,308.0
16:36:05,-1740.0,312.0,309.0
16:36:05,-1740.0,312.0,309.0
16:36:05,-1740.0,312.0,309.0
16:36:05,-1740.0,312.0,309.0
16:36:05,-1656.0,311.0,309.0
16:36:05,-1656.0,311.0,309.0
16:36:05,-1656.0,311.0,309.0
16:36:05,-1656.0,311.0,309.0
16:36:05,-1571.0,313.0,309.0
16:36:05,-1571.0,313.0,309.0
16:36:05,-1571.0,313.0,309.0
16:36:05,-1571.0,313.0,309.0
16:36:05,-1548.0,312.0,310.0
16:36:05,-1548.0,312.0,310.0
16:36:05,-1548.0,312.0,310.0
16:36:05,-1548.0,312.0,310.0
16:36:05,-1586.0,311.0,308.0
16:36:05,-1586.0,311.0,308.0
16:36:05,-1586.0,311.0,308.0
16:36:05,-1586.0,311.0,308.0
16:36:05,-1745.0,311.0,309.0
16:36:05,-1745.0,311.0,309.0
16:36:05,-1745.0,311.0,309.0
16:36:05,-1745.0,311.0,309.0
16:36:05,-1873.0,311.0,309.0
16:36:05,-1873.0,311.0,309.0
16:36:05,-1873.0,311.0,309.0
16:36:05,-1873.0,311.0,309.0
16:36:05,-1900.0,311.0,310.0
16:36:05,-1900.0,311.0,310.0
16:36:05,-1900.0,311.0,310.0
16:36:05,-1900.0,311.0,310.0
16:36:05,-1895.0,312.0,310.0
16:36:05,-1895.0,312.0,310.0
16:36:05,-1895.0,312.0,310.0
16:36:05,-1895.0,312.0,310.0
16:36:05,-1848.0,313.0,310.0
16:36:05,-1848.0,313.0,310.0
16:36:05,-1848.0,313.0,310.0
16:36:05,-1848.0,313.0,310.0
16:36:05,-1909.0,312.0,311.0
16:36:05,-1909.0,312.0,311.0
16:36:05,-1909.0,312.0,311.0
16:36:05,-1909.0,312.0,311.0
16:36:05,-1845.0,311.0,310.0
16:36:05,-1845.0,311.0,310.0
16:36:05,-1845.0,311.0,310.0
16:36:05,-1845.0,311.0,310.0
16:36:05,-1881.0,312.0,310.0
16:36:05,-1881.0,312.0,310.0
16:36:05,-1881.0,312.0,310.0
16:36:05,-1881.0,312.0,310.0
16:36:05,-1851.0,312.0,309.0
16:36:05,-1851.0,312.0,309.0
16:36:05,-1851.0,312.0,309.0
16:36:05,-1851.0,312.0,309.0
16:36:05,-1855.0,312.0,309.0
16:36:05,-1855.0,312.0,309.0
16:36:05,-1855.0,312.0,309.0
16:36:05,-1855.0,312.0,309.0
16:36:05,-1848.0,310.0,309.0
16:36:05,-1848.0,310.0,309.0
16:36:05,-1848.0,310.0,309.0
16:36:05,-1848.0,310.0,309.0
16:36:05,-1841.0,312.0,310.0
16:36:05,-1841.0,312.0,310.0
16:36:05,-1841.0,312.0,310.0
16:36:05,-1841.0,312.0,310.0
16:36:05,-1825.0,312.0,309.0
16:36:05,-1825.0,312.0,309.0
16:36:05,-1825.0,312.0,309.0
16:36:05,-1825.0,312.0,309.0
16:36:05,-1775.0,312.0,310.0
16:36:05,-1775.0,312.0,310.0
16:36:05,-1775.0,312.0,310.0
16:36:05,-1775.0,312.0,310.0
16:36:05,-1787.0,311.0,310.0
16:36:05,-1787.0,311.0,310.0
16:36:05,-1787.0,311.0,310.0
16:36:05,-1787.0,311.0,310.0
16:36:05,-1868.0,311.0,310.0
16:36:05,-1868.0,311.0,310.0
16:36:05,-1868.0,311.0,310.0
16:36:05,-1868.0,311.0,310.0
16:36:05,-1851.0,311.0,309.0
16:36:05,-1851.0,311.0,309.0
16:36:05,-1851.0,311.0,309.0
16:36:05,-1851.0,311.0,309.0
16:36:05,-1859.0,312.0,310.0
16:36:05,-1859.0,312.0,310.0
16:36:05,-1859.0,312.0,310.0
16:36:05,-1859.0,312.0,310.0
16:36:05,-2016.0,311.0,310.0
16:36:05,-2016.0,311.0,310.0
16:36:05,-2016.0,311.0,310.0
16:36:05,-2016.0,311.0,310.0
16:36:05,-865.0,311.0,310.0
16:36:05,-865.0,311.0,310.0
16:36:05,-865.0,311.0,310.0
16:36:05,-865.0,311.0,310.0
16:36:05,-1016.0,312.0,310.0
16:36:05,-1016.0,312.0,310.0
16:36:05,-1016.0,312.0,310.0
16:36:05,-1016.0,312.0,310.0
16:36:05,-1812.0,314.0,310.0
16:36:05,-1812.0,314.0,310.0
16:36:05,-1812.0,314.0,310.0
16:36:05,-1812.0,314.0,310.0
16:36:05,-1873.0,312.0,310.0
16:36:05,-1873.0,312.0,310.0
16:36:05,-1873.0,312.0,310.0
16:36:05,-1873.0,312.0,310.0
16:36:05,-1859.0,312.0,310.0
16:36:05,-1859.0,312.0,310.0
16:36:05,-1859.0,312.0,310.0
16:36:05,-1859.0,312.0,310.0
16:36:05,-1834.0,313.0,310.0
16:36:05,-1834.0,313.0,310.0
16:36:05,-1834.0,313.0,310.0
16:36:05,-1834.0,313.0,310.0
16:36:05,-1792.0,313.0,310.0
16:36:05,-1792.0,313.0,310.0
16:36:05,-1792.0,313.0,310.0
16:36:05,-1792.0,313.0,310.0
16:36:05,-1740.0,313.0,309.0
16:36:05,-1740.0,313.0,309.0
16:36:05,-1740.0,313.0,309.0
16:36:05,-1740.0,313.0,309.0
16:36:05,-1663.0,312.0,310.0
16:36:05,-1663.0,312.0,310.0
16:36:05,-1663.0,312.0,310.0
16:36:05,-1663.0,312.0,310.0
16:36:05,-1591.0,312.0,310.0
16:36:05,-1591.0,312.0,310.0
16:36:05,-1591.0,312.0,310.0
16:36:05,-1591.0,312.0,310.0
16:36:05,-1526.0,313.0,310.0
16:36:05,-1526.0,313.0,310.0
16:36:05,-1526.0,313.0,310.0
16:36:05,-1526.0,313.0,310.0
16:36:05,-1616.0,313.0,310.0
16:36:05,-1616.0,313.0,310.0
16:36:05,-1616.0,313.0,310.0
16:36:05,-1616.0,313.0,310.0
16:36:05,-1782.0,312.0,310.0
16:36:05,-1782.0,312.0,310.0
16:36:05,-1782.0,312.0,310.0
16:36:05,-1782.0,312.0,310.0
16:36:05,-1852.0,313.0,310.0
16:36:05,-1852.0,313.0,310.0
16:36:05,-1852.0,313.0,310.0
16:36:05,-1852.0,313.0,310.0
16:36:05,-1886.0,310.0,311.0
16:36:05,-1886.0,310.0,311.0
16:36:05,-1886.0,310.0,311.0
16:36:05,-1886.0,310.0,311.0
16:36:05,-1898.0,313.0,310.0
16:36:05,-1898.0,313.0,310.0
16:36:05,-1898.0,313.0,310.0
16:36:05,-1898.0,313.0,310.0
16:36:05,-1897.0,312.0,310.0
16:36:05,-1897.0,312.0,310.0
16:36:05,-1897.0,312.0,310.0
16:36:05,-1897.0,312.0,310.0
16:36:06,-1852.0,312.0,309.0
16:36:06,-1852.0,312.0,309.0
16:36:06,-1852.0,312.0,309.0
16:36:06,-1852.0,312.0,309.0
16:36:06,-1845.0,313.0,309.0
16:36:06,-1845.0,313.0,309.0
16:36:06,-1845.0,313.0,309.0
16:36:06,-1845.0,313.0,309.0
16:36:06,-1833.0,311.0,310.0
16:36:06,-1833.0,311.0,310.0
16:36:06,-1833.0,311.0,310.0
16:36:06,-1833.0,311.0,310.0
16:36:06,-1825.0,311.0,309.0
16:36:06,-1825.0,311.0,309.0
16:36:06,-1825.0,311.0,309.0
16:36:06,-1825.0,311.0,309.0
16:36:06,-1830.0,311.0,310.0
16:36:06,-1830.0,311.0,310.0
16:36:06,-1830.0,311.0,310.0
16:36:06,-1830.0,311.0,310.0
16:36:06,-1814.0,311.0,311.0
16:36:06,-1814.0,311.0,311.0
16:36:06,-1814.0,311.0,311.0
16:36:06,-1814.0,311.0,311.0
16:36:06,-1812.0,312.0,309.0
16:36:06,-1812.0,312.0,309.0
16:36:06,-1812.0,312.0,309.0
16:36:06,-1812.0,312.0,309.0
16:36:06,-1804.0,311.0,310.0
16:36:06,-1804.0,311.0,310.0
16:36:06,-1804.0,311.0,310.0
16:36:06,-1804.0,311.0,310.0
16:36:06,-1767.0,311.0,310.0
16:36:06,-1767.0,311.0,310.0
16:36:06,-1767.0,311.0,310.0
16:36:06,-1767.0,311.0,310.0
16:36:06,-1757.0,311.0,309.0
16:36:06,-1757.0,311.0,309.0
16:36:06,-1757.0,311.0,309.0
16:36:06,-1757.0,311.0,309.0
16:36:06,-1753.0,313.0,310.0
16:36:06,-1753.0,313.0,310.0
16:36:06,-1753.0,313.0,310.0
16:36:06,-1753.0,313.0,310.0
16:36:06,-1807.0,312.0,311.0
16:36:06,-1807.0,312.0,311.0
16:36:06,-1807.0,312.0,311.0
16:36:06,-1807.0,312.0,311.0
16:36:06,-1769.0,312.0,309.0
16:36:06,-1769.0,312.0,309.0
16:36:06,-1769.0,312.0,309.0
16:36:06,-1769.0,312.0,309.0
16:36:06,-1791.0,312.0,310.0
16:36:06,-1791.0,312.0,310.0
16:36:06,-1791.0,312.0,310.0
16:36:06,-1791.0,312.0,310.0
16:36:06,-1934.0,311.0,309.0
16:36:06,-1934.0,311.0,309.0
16:36:06,-1934.0,311.0,309.0
16:36:06,-1934.0,311.0,309.0
16:36:06,-776.0,312.0,311.0
16:36:06,-776.0,312.0,311.0
16:36:06,-776.0,312.0,311.0
16:36:06,-776.0,312.0,311.0
16:36:06,-820.0,312.0,310.0
16:36:06,-820.0,312.0,310.0
16:36:06,-820.0,312.0,310.0
16:36:06,-820.0,312.0,310.0
16:36:06,-1694.0,310.0,308.0
16:36:06,-1694.0,310.0,308.0
16:36:06,-1694.0,310.0,308.0
16:36:06,-1694.0,310.0,308.0
16:36:06,-1768.0,312.0,310.0
16:36:06,-1768.0,312.0,310.0
16:36:06,-1768.0,312.0,310.0
16:36:06,-1768.0,312.0,310.0
16:36:06,-1814.0,313.0,309.0
16:36:06,-1814.0,313.0,309.0
16:36:06,-1814.0,313.0,309.0
16:36:06,-1814.0,313.0,309.0
16:36:06,-1757.0,312.0,310.0
16:36:06,-1757.0,312.0,310.0
16:36:06,-1757.0,312.0,310.0
16:36:06,-1757.0,312.0,310.0
16:36:06,-1737.0,311.0,310.0
16:36:06,-1737.0,311.0,310.0
16:36:06,-1737.0,311.0,310.0
16:36:06,-1737.0,311.0,310.0
16:36:06,-1686.0,312.0,309.0
16:36:06,-1686.0,312.0,309.0
16:36:06,-1686.0,312.0,309.0
16:36:06,-1686.0,312.0,309.0
16:36:06,-1639.0,312.0,309.0
16:36:06,-1639.0,312.0,309.0
16:36:06,-1639.0,312.0,309.0
16:36:06,-1639.0,312.0,309.0
16:36:06,-1532.0,312.0,310.0
16:36:06,-1532.0,312.0,310.0
16:36:06,-1532.0,312.0,310.0
16:36:06,-1532.0,312.0,310.0
16:36:06,-1482.0,312.0,309.0
16:36:06,-1482.0,312.0,309.0
16:36:06,-1482.0,312.0,309.0
16:36:06,-1482.0,312.0,309.0
16:36:06,-1496.0,312.0,309.0
16:36:06,-1496.0,312.0,309.0
16:36:06,-1496.0,312.0,309.0
16:36:06,-1496.0,312.0,309.0
16:36:06,-1634.0,311.0,311.0
16:36:06,-1634.0,311.0,311.0
16:36:06,-1634.0,311.0,311.0
16:36:06,-1634.0,311.0,311.0
16:36:06,-1788.0,311.0,310.0
16:36:06,-1788.0,311.0,310.0
16:36:06,-1788.0,311.0,310.0
16:36:06,-1788.0,311.0,310.0
16:36:06,-1835.0,312.0,310.0
16:36:06,-1835.0,312.0,310.0
16:36:06,-1835.0,312.0,310.0
16:36:06,-1835.0,312.0,310.0
16:36:06,-1802.0,311.0,310.0
16:36:06,-1802.0,311.0,310.0
16:36:06,-1802.0,311.0,310.0
16:36:06,-1802.0,311.0,310.0
16:36:06,-1814.0,311.0,310.0
16:36:06,-1814.0,311.0,310.0
16:36:06,-1814.0,311.0,310.0
16:36:06,-1814.0,311.0,310.0
16:36:06,-1800.0,312.0,310.0
16:36:06,-1800.0,312.0,310.0
16:36:06,-1800.0,312.0,310.0
16:36:06,-1800.0,312.0,310.0
16:36:06,-1756.0,314.0,310.0
16:36:06,-1756.0,314.0,310.0
16:36:06,-1756.0,314.0,310.0
16:36:06,-1756.0,314.0,310.0
16:36:06,-1794.0,311.0,310.0
16:36:06,-1794.0,311.0,310.0
16:36:06,-1794.0,311.0,310.0
16:36:06,-1794.0,311.0,310.0
16:36:06,-1765.0,311.0,310.0
16:36:06,-1765.0,311.0,310.0
16:36:06,-1765.0,311.0,310.0
16:36:06,-1765.0,311.0,310.0
16:36:06,-1758.0,312.0,310.0
16:36:06,-1758.0,312.0,310.0
16:36:06,-1758.0,312.0,310.0
16:36:06,-1758.0,312.0,310.0
16:36:06,-1754.0,312.0,311.0
16:36:06,-1754.0,312.0,311.0
16:36:06,-1754.0,312.0,311.0
16:36:06,-1754.0,312.0,311.0
16:36:06,-1751.0,312.0,310.0
16:36:06,-1751.0,312.0,310.0
16:36:06,-1751.0,312.0,310.0
16:36:06,-1751.0,312.0,310.0
16:36:06,-1741.0,312.0,309.0
16:36:06,-1741.0,312.0,309.0
16:36:06,-1741.0,312.0,309.0
16:36:06,-1741.0,312.0,309.0
16:36:06,-1769.0,312.0,309.0
16:36:06,-1769.0,312.0,309.0
16:36:06,-1769.0,312.0,309.0
16:36:06,-1769.0,312.0,309.0
16:36:06,-1738.0,311.0,310.0
16:36:06,-1738.0,311.0,310.0
16:36:06,-1738.0,311.0,310.0
16:36:06,-1738.0,311.0,310.0
16:36:06,-1733.0,311.0,311.0
16:36:06,-1733.0,311.0,311.0
16:36:06,-1733.0,311.0,311.0
16:36:06,-1733.0,311.0,311.0
16:36:06,-1675.0,312.0,310.0
16:36:06,-1675.0,312.0,310.0
16:36:06,-1675.0,312.0,310.0
16:36:06,-1675.0,312.0,310.0
16:36:06,-1600.0,313.0,310.0
16:36:06,-1600.0,313.0,310.0
16:36:06,-1600.0,313.0,310.0
16:36:06,-1600.0,313.0,310.0
16:36:06,-1621.0,312.0,310.0
16:36:06,-1621.0,312.0,310.0
16:36:06,-1621.0,312.0,310.0
16:36:06,-1621.0,312.0,310.0
16:36:06,-1694.0,312.0,311.0
16:36:06,-1694.0,312.0,311.0
16:36:06,-1694.0,312.0,311.0
16:36:06,-1694.0,312.0,311.0
16:36:06,-1675.0,312.0,309.0
16:36:06,-1675.0,312.0,309.0
16:36:06,-1675.0,312.0,309.0
16:36:06,-1675.0,312.0,309.0
16:36:06,-1676.0,313.0,310.0
16:36:06,-1676.0,313.0,310.0
16:36:06,-1676.0,313.0,310.0
16:36:06,-1676.0,313.0,310.0
16:36:06,-1842.0,312.0,310.0
16:36:06,-1842.0,312.0,310.0
16:36:06,-1842.0,312.0,310.0
16:36:06,-1842.0,312.0,310.0
16:36:06,-558.0,312.0,310.0
16:36:07,-558.0,312.0,310.0
16:36:07,-558.0,312.0,310.0
16:36:07,-558.0,312.0,310.0
16:36:07,-687.0,312.0,310.0
16:36:07,-687.0,312.0,310.0
16:36:07,-687.0,312.0,310.0
16:36:07,-687.0,312.0,310.0
16:36:07,-1586.0,312.0,310.0
16:36:07,-1586.0,312.0,310.0
16:36:07,-1586.0,312.0,310.0
16:36:07,-1586.0,312.0,310.0
16:36:07,-1702.0,311.0,310.0
16:36:07,-1702.0,311.0,310.0
16:36:07,-1702.0,311.0,310.0
16:36:07,-1702.0,311.0,310.0
16:36:07,-1675.0,312.0,310.0
16:36:07,-1675.0,312.0,310.0
16:36:07,-1675.0,312.0,310.0
16:36:07,-1675.0,312.0,310.0
16:36:07,-1658.0,311.0,310.0
16:36:07,-1658.0,311.0,310.0
16:36:07,-1658.0,311.0,310.0
16:36:07,-1658.0,311.0,310.0
16:36:07,-1626.0,312.0,310.0
16:36:07,-1626.0,312.0,310.0
16:36:07,-1626.0,312.0,310.0
16:36:07,-1626.0,312.0,310.0
16:36:07,-1588.0,312.0,310.0
16:36:07,-1588.0,312.0,310.0
16:36:07,-1588.0,312.0,310.0
16:36:07,-1588.0,312.0,310.0
16:36:07,-1483.0,312.0,310.0
16:36:07,-1483.0,312.0,310.0
16:36:07,-1483.0,312.0,310.0
16:36:07,-1483.0,312.0,310.0
16:36:07,-1399.0,311.0,309.0
16:36:07,-1399.0,311.0,309.0
16:36:07,-1399.0,311.0,309.0
16:36:07,-1399.0,311.0,309.0
16:36:07,-1376.0,311.0,309.0
16:36:07,-1376.0,311.0,309.0
16:36:07,-1376.0,311.0,309.0
16:36:07,-1376.0,311.0,309.0
16:36:07,-1388.0,312.0,308.0
16:36:07,-1388.0,312.0,308.0
16:36:07,-1388.0,312.0,308.0
16:36:07,-1388.0,312.0,308.0
16:36:07,-1531.0,311.0,310.0
16:36:07,-1531.0,311.0,310.0
16:36:07,-1531.0,311.0,310.0
16:36:07,-1531.0,311.0,310.0
16:36:07,-1664.0,312.0,309.0
16:36:07,-1664.0,312.0,309.0
16:36:07,-1664.0,312.0,309.0
16:36:07,-1664.0,312.0,309.0
16:36:07,-1713.0,311.0,309.0
16:36:07,-1713.0,311.0,309.0
16:36:07,-1713.0,311.0,309.0
16:36:07,-1713.0,311.0,309.0
16:36:07,-1700.0,312.0,309.0
16:36:07,-1700.0,312.0,309.0
16:36:07,-1700.0,312.0,309.0
16:36:07,-1700.0,312.0,309.0
16:36:07,-1686.0,311.0,308.0
16:36:07,-1686.0,311.0,308.0
16:36:07,-1686.0,311.0,308.0
16:36:07,-1686.0,311.0,308.0
16:36:07,-1692.0,312.0,309.0
16:36:07,-1692.0,312.0,309.0
16:36:07,-1692.0,312.0,309.0
16:36:07,-1692.0,312.0,309.0
16:36:07,-1678.0,311.0,310.0
16:36:07,-1678.0,311.0,310.0
16:36:07,-1678.0,311.0,310.0
16:36:07,-1678.0,311.0,310.0
16:36:07,-1636.0,312.0,309.0
16:36:07,-1636.0,312.0,309.0
16:36:07,-1636.0,312.0,309.0
16:36:07,-1636.0,312.0,309.0
16:36:07,-1650.0,312.0,309.0
16:36:07,-1650.0,312.0,309.0
16:36:07,-1650.0,312.0,309.0
16:36:07,-1650.0,312.0,309.0
16:36:07,-1650.0,311.0,311.0
16:36:07,-1650.0,311.0,311.0
16:36:07,-1650.0,311.0,311.0
16:36:07,-1650.0,311.0,311.0
16:36:07,-1676.0,313.0,309.0
16:36:07,-1676.0,313.0,309.0
16:36:07,-1676.0,313.0,309.0
16:36:07,-1676.0,313.0,309.0
16:36:07,-1630.0,312.0,309.0
16:36:07,-1630.0,312.0,309.0
16:36:07,-1630.0,312.0,309.0
16:36:07,-1630.0,312.0,309.0
16:36:07,-1658.0,311.0,311.0
16:36:07,-1658.0,311.0,311.0
16:36:07,-1658.0,311.0,311.0
16:36:07,-1658.0,311.0,311.0
16:36:07,-1623.0,311.0,311.0
16:36:07,-1623.0,311.0,311.0
16:36:07,-1623.0,311.0,311.0
16:36:07,-1623.0,311.0,311.0
16:36:07,-1616.0,312.0,308.0
16:36:07,-1616.0,312.0,308.0
16:36:07,-1616.0,312.0,308.0
16:36:07,-1616.0,312.0,308.0
16:36:07,-1619.0,311.0,310.0
16:36:07,-1619.0,311.0,310.0
16:36:07,-1619.0,311.0,310.0
16:36:07,-1619.0,311.0,310.0
16:36:07,-1614.0,310.0,310.0
16:36:07,-1614.0,310.0,310.0
16:36:07,-1614.0,310.0,310.0
16:36:07,-1614.0,310.0,310.0
16:36:07,-1585.0,311.0,311.0
16:36:07,-1585.0,311.0,311.0
16:36:07,-1585.0,311.0,311.0
16:36:07,-1585.0,311.0,311.0
16:36:07,-1536.0,313.0,309.0
16:36:07,-1536.0,313.0,309.0
16:36:07,-1536.0,313.0,309.0
16:36:07,-1536.0,313.0,309.0
16:36:07,-1518.0,311.0,310.0
16:36:07,-1518.0,311.0,310.0
16:36:07,-1518.0,311.0,310.0
16:36:07,-1518.0,311.0,310.0
16:36:07,-1611.0,312.0,310.0
16:36:07,-1611.0,312.0,310.0
16:36:07,-1611.0,312.0,310.0
16:36:07,-1611.0,312.0,310.0
16:36:07,-1577.0,312.0,311.0
16:36:07,-1577.0,312.0,311.0
16:36:07,-1577.0,312.0,311.0
16:36:07,-1577.0,312.0,311.0
16:36:07,-1598.0,312.0,310.0
16:36:07,-1598.0,312.0,310.0
16:36:07,-1598.0,312.0,310.0
16:36:07,-1598.0,312.0,310.0
16:36:07,-1678.0,313.0,310.0
16:36:07,-1678.0,313.0,310.0
16:36:07,-1678.0,313.0,310.0
16:36:07,-1678.0,313.0,310.0
16:36:07,-768.0,311.0,310.0
16:36:07,-768.0,311.0,310.0
16:36:07,-768.0,311.0,310.0
16:36:07,-768.0,311.0,310.0
16:36:07,-502.0,312.0,310.0
16:36:07,-502.0,312.0,310.0
16:36:07,-502.0,312.0,310.0
16:36:07,-502.0,312.0,310.0
16:36:07,-1456.0,310.0,309.0
16:36:07,-1456.0,310.0,309.0
16:36:07,-1456.0,310.0,309.0
16:36:07,-1456.0,310.0,309.0
16:36:07,-1598.0,310.0,311.0
16:36:07,-1598.0,310.0,311.0
16:36:07,-1598.0,310.0,311.0
16:36:07,-1598.0,310.0,311.0
16:36:07,-1599.0,312.0,309.0
16:36:07,-1599.0,312.0,309.0
16:36:07,-1599.0,312.0,309.0
16:36:07,-1599.0,312.0,309.0
16:36:07,-1574.0,311.0,309.0
16:36:07,-1574.0,311.0,309.0
16:36:07,-1574.0,311.0,309.0
16:36:07,-1574.0,311.0,309.0
16:36:07,-1514.0,312.0,310.0
16:36:07,-1514.0,312.0,310.0
16:36:07,-1514.0,312.0,310.0
16:36:07,-1514.0,312.0,310.0
16:36:07,-1471.0,310.0,310.0
16:36:07,-1471.0,310.0,310.0
16:36:07,-1471.0,310.0,310.0
16:36:07,-1471.0,310.0,310.0
16:36:07,-1384.0,312.0,309.0
16:36:07,-1384.0,312.0,309.0
16:36:07,-1384.0,312.0,309.0
16:36:07,-1384.0,312.0,309.0
16:36:07,-1343.0,312.0,310.0
16:36:07,-1343.0,312.0,310.0
16:36:07,-1343.0,312.0,310.0
16:36:07,-1343.0,312.0,310.0
16:36:07,-1257.0,311.0,311.0
16:36:07,-1257.0,311.0,311.0
16:36:07,-1257.0,311.0,311.0
16:36:07,-1257.0,311.0,311.0
16:36:07,-1257.0,312.0,310.0
16:36:07,-1257.0,312.0,310.0
16:36:07,-1257.0,312.0,310.0
16:36:07,-1257.0,312.0,310.0
16:36:07,-1391.0,312.0,311.0
16:36:07,-1391.0,312.0,311.0
16:36:07,-1391.0,312.0,311.0
16:36:07,-1391.0,312.0,311.0
16:36:07,-1555.0,313.0,308.0
16:36:07,-1555.0,313.0,308.0
16:36:07,-1555.0,313.0,308.0
16:36:07,-1555.0,313.0,308.0
16:36:07,-1617.0,311.0,309.0
16:36:07,-1617.0,311.0,309.0
16:36:08,-1617.0,311.0,309.0
16:36:08,-1617.0,311.0,309.0
16:36:08,-1560.0,311.0,309.0
16:36:08,-1560.0,311.0,309.0
16:36:08,-1560.0,311.0,309.0
16:36:08,-1560.0,311.0,309.0
16:36:08,-1554.0,312.0,312.0
16:36:08,-1554.0,312.0,312.0
16:36:08,-1554.0,312.0,312.0
16:36:08,-1554.0,312.0,312.0
16:36:08,-1522.0,311.0,311.0
16:36:08,-1522.0,311.0,311.0
16:36:08,-1522.0,311.0,311.0
16:36:08,-1522.0,311.0,311.0
16:36:08,-1532.0,312.0,310.0
16:36:08,-1532.0,312.0,310.0
16:36:08,-1532.0,312.0,310.0
16:36:08,-1532.0,312.0,310.0
16:36:08,-1546.0,311.0,310.0
16:36:08,-1546.0,311.0,310.0
16:36:08,-1546.0,311.0,310.0
16:36:08,-1546.0,311.0,310.0
16:36:08,-1532.0,313.0,310.0
16:36:08,-1532.0,313.0,310.0
16:36:08,-1532.0,313.0,310.0
16:36:08,-1532.0,313.0,310.0
16:36:08,-1480.0,311.0,309.0
16:36:08,-1480.0,311.0,309.0
16:36:08,-1480.0,311.0,309.0
16:36:08,-1480.0,311.0,309.0
16:36:08,-1499.0,313.0,309.0
16:36:08,-1499.0,313.0,309.0
16:36:08,-1499.0,313.0,309.0
16:36:08,-1499.0,313.0,309.0
16:36:08,-1521.0,313.0,310.0
16:36:08,-1521.0,313.0,310.0
16:36:08,-1521.0,313.0,310.0
16:36:08,-1521.0,313.0,310.0
16:36:08,-1489.0,312.0,310.0
16:36:08,-1489.0,312.0,310.0
16:36:08,-1489.0,312.0,310.0
16:36:08,-1489.0,312.0,310.0
16:36:08,-1497.0,311.0,309.0
16:36:08,-1497.0,311.0,309.0
16:36:08,-1497.0,311.0,309.0
16:36:08,-1497.0,311.0,309.0
16:36:08,-1465.0,312.0,309.0
16:36:08,-1465.0,312.0,309.0
16:36:08,-1465.0,312.0,309.0
16:36:08,-1465.0,312.0,309.0
16:36:08,-1418.0,311.0,311.0
16:36:08,-1418.0,311.0,311.0
16:36:08,-1418.0,311.0,311.0
16:36:08,-1418.0,311.0,311.0
16:36:08,-1450.0,312.0,309.0
16:36:08,-1450.0,312.0,309.0
16:36:08,-1450.0,312.0,309.0
16:36:08,-1450.0,312.0,309.0
16:36:08,-1506.0,311.0,310.0
16:36:08,-1506.0,311.0,310.0
16:36:08,-1506.0,311.0,310.0
16:36:08,-1506.0,311.0,310.0
16:36:08,-1494.0,311.0,308.0
16:36:08,-1494.0,311.0,308.0
16:36:08,-1494.0,311.0,308.0
16:36:08,-1494.0,311.0,308.0
16:36:08,-1506.0,311.0,311.0
16:36:08,-1506.0,311.0,311.0
16:36:08,-1506.0,311.0,311.0
16:36:08,-1506.0,311.0,311.0
16:36:08,-1633.0,312.0,310.0
16:36:08,-1633.0,312.0,310.0
16:36:08,-1633.0,312.0,310.0
16:36:08,-1633.0,312.0,310.0
16:36:08,-521.0,312.0,308.0
16:36:08,-521.0,312.0,308.0
16:36:08,-521.0,312.0,308.0
16:36:08,-521.0,312.0,308.0
16:36:08,-602.0,312.0,309.0
16:36:08,-602.0,312.0,309.0
16:36:08,-602.0,312.0,309.0
16:36:08,-602.0,312.0,309.0
16:36:08,-1430.0,312.0,311.0
16:36:08,-1430.0,312.0,311.0
16:36:08,-1430.0,312.0,311.0
16:36:08,-1430.0,312.0,311.0
16:36:08,-1454.0,311.0,309.0
16:36:08,-1454.0,311.0,309.0
16:36:08,-1454.0,311.0,309.0
16:36:08,-1454.0,311.0,309.0
16:36:08,-1449.0,311.0,308.0
16:36:08,-1449.0,311.0,308.0
16:36:08,-1449.0,311.0,308.0
16:36:08,-1449.0,311.0,308.0
16:36:08,-1421.0,311.0,310.0
16:36:08,-1421.0,311.0,310.0
16:36:08,-1421.0,311.0,310.0
16:36:08,-1421.0,311.0,310.0
16:36:08,-1418.0,310.0,309.0
16:36:08,-1418.0,310.0,309.0
16:36:08,-1418.0,310.0,309.0
16:36:08,-1418.0,310.0,309.0
16:36:08,-1348.0,310.0,308.0
16:36:08,-1348.0,310.0,308.0
16:36:08,-1348.0,310.0,308.0
16:36:08,-1348.0,310.0,308.0
16:36:08,-1288.0,312.0,309.0
16:36:08,-1288.0,312.0,309.0
16:36:08,-1288.0,312.0,309.0
16:36:08,-1288.0,312.0,309.0
16:36:08,-1213.0,312.0,311.0
16:36:08,-1213.0,312.0,311.0
16:36:08,-1213.0,312.0,311.0
16:36:08,-1213.0,312.0,311.0
16:36:08,-1162.0,311.0,311.0
16:36:08,-1162.0,311.0,311.0
16:36:08,-1162.0,311.0,311.0
16:36:08,-1162.0,311.0,311.0
16:36:08,-1169.0,313.0,310.0
16:36:08,-1169.0,313.0,310.0
16:36:08,-1169.0,313.0,310.0
16:36:08,-1169.0,313.0,310.0
16:36:08,-1351.0,311.0,309.0
16:36:08,-1351.0,311.0,309.0
16:36:08,-1351.0,311.0,309.0
16:36:08,-1351.0,311.0,309.0
16:36:08,-1489.0,312.0,310.0
16:36:08,-1489.0,312.0,310.0
16:36:08,-1489.0,312.0,310.0
16:36:08,-1489.0,312.0,310.0
16:36:08,-1499.0,311.0,311.0
16:36:08,-1499.0,311.0,311.0
16:36:08,-1499.0,311.0,311.0
16:36:08,-1499.0,311.0,311.0
16:36:08,-1527.0,311.0,311.0
16:36:08,-1527.0,311.0,311.0
16:36:08,-1527.0,311.0,311.0
16:36:08,-1527.0,311.0,311.0
16:36:08,-1495.0,312.0,310.0
16:36:08,-1495.0,312.0,310.0
16:36:08,-1495.0,312.0,310.0
16:36:08,-1495.0,312.0,310.0
16:36:08,-1504.0,311.0,310.0
16:36:08,-1504.0,311.0,310.0
16:36:08,-1504.0,311.0,310.0
16:36:08,-1504.0,311.0,310.0
16:36:08,-1472.0,312.0,310.0
16:36:08,-1472.0,312.0,310.0
16:36:08,-1472.0,312.0,310.0
16:36:08,-1472.0,312.0,310.0
16:36:08,-1469.0,311.0,311.0
16:36:08,-1469.0,311.0,311.0
16:36:08,-1469.0,311.0,311.0
16:36:08,-1469.0,311.0,311.0
16:36:08,-1441.0,311.0,310.0
16:36:08,-1441.0,311.0,310.0
16:36:08,-1441.0,311.0,310.0
16:36:08,-1441.0,311.0,310.0
16:36:08,-1483.0,311.0,309.0
16:36:08,-1483.0,311.0,309.0
16:36:08,-1483.0,311.0,309.0
16:36:08,-1483.0,311.0,309.0
16:36:08,-1458.0,312.0,310.0
16:36:08,-1458.0,312.0,310.0
16:36:08,-1458.0,312.0,310.0
16:36:08,-1458.0,312.0,310.0
16:36:08,-1454.0,311.0,310.0
16:36:08,-1454.0,311.0,310.0
16:36:08,-1454.0,311.0,310.0
16:36:08,-1454.0,311.0,310.0
16:36:08,-1406.0,312.0,310.0
16:36:08,-1406.0,312.0,310.0
16:36:08,-1406.0,312.0,310.0
16:36:08,-1406.0,312.0,310.0
16:36:08,-1399.0,313.0,309.0
16:36:08,-1399.0,313.0,309.0
16:36:08,-1399.0,313.0,309.0
16:36:08,-1399.0,313.0,309.0
16:36:08,-1392.0,311.0,310.0
16:36:08,-1392.0,311.0,310.0
16:36:08,-1392.0,311.0,310.0
16:36:08,-1392.0,311.0,310.0
16:36:08,-1482.0,311.0,310.0
16:36:08,-1482.0,311.0,310.0
16:36:08,-1482.0,311.0,310.0
16:36:08,-1482.0,311.0,310.0
16:36:08,-1451.0,311.0,311.0
16:36:08,-1451.0,311.0,311.0
16:36:08,-1451.0,311.0,311.0
16:36:08,-1451.0,311.0,311.0
16:36:08,-1459.0,311.0,309.0
16:36:08,-1459.0,311.0,309.0
16:36:08,-1459.0,311.0,309.0
16:36:08,-1459.0,311.0,309.0
16:36:08,-1549.0,311.0,310.0
16:36:08,-1549.0,311.0,310.0
16:36:08,-1549.0,311.0,310.0
16:36:08,-1549.0,311.0,310.0
16:36:08,-873.0,313.0,308.0
16:36:08,-873.0,313.0,308.0
16:36:08,-873.0,313.0,308.0
16:36:09,-873.0,313.0,308.0
16:36:09,-433.0,312.0,311.0
16:36:09,-433.0,312.0,311.0
16:36:09,-433.0,312.0,311.0
16:36:09,-433.0,312.0,311.0
16:36:09,-1392.0,311.0,309.0
16:36:09,-1392.0,311.0,309.0
16:36:09,-1392.0,311.0,309.0
16:36:09,-1392.0,311.0,309.0
16:36:09,-1479.0,311.0,311.0
16:36:09,-1479.0,311.0,311.0
16:36:09,-1479.0,311.0,311.0
16:36:09,-1479.0,311.0,311.0
16:36:09,-1515.0,311.0,311.0
16:36:09,-1515.0,311.0,311.0
16:36:09,-1515.0,311.0,311.0
16:36:09,-1515.0,311.0,311.0
16:36:09,-1484.0,311.0,311.0
16:36:09,-1484.0,311.0,311.0
16:36:09,-1484.0,311.0,311.0
16:36:09,-1484.0,311.0,311.0
16:36:09,-1460.0,310.0,311.0
16:36:09,-1460.0,310.0,311.0
16:36:09,-1460.0,310.0,311.0
16:36:09,-1460.0,310.0,311.0
16:36:09,-1397.0,311.0,309.0
16:36:09,-1397.0,311.0,309.0
16:36:09,-1397.0,311.0,309.0
16:36:09,-1397.0,311.0,309.0
16:36:09,-1343.0,312.0,309.0
16:36:09,-1343.0,312.0,309.0
16:36:09,-1343.0,312.0,309.0
16:36:09,-1343.0,312.0,309.0
16:36:09,-1225.0,310.0,310.0
16:36:09,-1225.0,310.0,310.0
16:36:09,-1225.0,310.0,310.0
16:36:09,-1225.0,310.0,310.0
16:36:09,-1170.0,312.0,309.0
16:36:09,-1170.0,312.0,309.0
16:36:09,-1170.0,312.0,309.0
16:36:09,-1170.0,312.0,309.0
16:36:09,-1180.0,312.0,310.0
16:36:09,-1180.0,312.0,310.0
16:36:09,-1180.0,312.0,310.0
16:36:09,-1180.0,312.0,310.0
16:36:09,-1330.0,311.0,310.0
16:36:09,-1330.0,311.0,310.0
16:36:09,-1330.0,311.0,310.0
16:36:09,-1330.0,311.0,310.0
16:36:09,-1461.0,310.0,309.0
16:36:09,-1461.0,310.0,309.0
16:36:09,-1461.0,310.0,309.0
16:36:09,-1461.0,310.0,309.0
16:36:09,-1481.0,311.0,310.0
16:36:09,-1481.0,311.0,310.0
16:36:09,-1481.0,311.0,310.0
16:36:09,-1481.0,311.0,310.0
16:36:09,-1495.0,312.0,310.0
16:36:09,-1495.0,312.0,310.0
16:36:09,-1495.0,312.0,310.0
16:36:09,-1495.0,312.0,310.0
16:36:09,-1514.0,311.0,309.0
16:36:09,-1514.0,311.0,309.0
16:36:09,-1514.0,311.0,309.0
16:36:09,-1514.0,311.0,309.0
16:36:09,-1484.0,311.0,309.0
16:36:09,-1484.0,311.0,309.0
16:36:09,-1484.0,311.0,309.0
16:36:09,-1484.0,311.0,309.0
16:36:09,-1494.0,312.0,310.0
16:36:09,-1494.0,312.0,310.0
16:36:09,-1494.0,312.0,310.0
16:36:09,-1494.0,312.0,310.0
16:36:09,-1477.0,311.0,309.0
16:36:09,-1477.0,311.0,309.0
16:36:09,-1477.0,311.0,309.0
16:36:09,-1477.0,311.0,309.0
16:36:09,-1457.0,311.0,310.0
16:36:09,-1457.0,311.0,310.0
16:36:09,-1457.0,311.0,310.0
16:36:09,-1457.0,311.0,310.0
16:36:09,-1462.0,312.0,309.0
16:36:09,-1462.0,312.0,309.0
16:36:09,-1462.0,312.0,309.0
16:36:09,-1462.0,312.0,309.0
16:36:09,-1485.0,312.0,308.0
16:36:09,-1485.0,312.0,308.0
16:36:09,-1485.0,312.0,308.0
16:36:09,-1485.0,312.0,308.0
16:36:09,-1434.0,311.0,308.0
16:36:09,-1434.0,311.0,308.0
16:36:09,-1434.0,311.0,308.0
16:36:09,-1434.0,311.0,308.0
16:36:09,-1452.0,312.0,308.0
16:36:09,-1452.0,312.0,308.0
16:36:09,-1452.0,312.0,308.0
16:36:09,-1452.0,312.0,308.0
16:36:09,-1417.0,313.0,308.0
16:36:09,-1417.0,313.0,308.0
16:36:09,-1417.0,313.0,308.0
16:36:09,-1417.0,313.0,308.0
16:36:09,-1441.0,311.0,309.0
16:36:09,-1441.0,311.0,309.0
16:36:09,-1441.0,311.0,309.0
16:36:09,-1441.0,311.0,309.0
16:36:09,-1474.0,312.0,309.0
16:36:09,-1474.0,312.0,309.0
16:36:09,-1474.0,312.0,309.0
16:36:09,-1474.0,312.0,309.0
16:36:09,-1455.0,311.0,309.0
16:36:09,-1455.0,311.0,309.0
16:36:09,-1455.0,311.0,309.0
16:36:09,-1455.0,311.0,309.0
16:36:09,-1471.0,312.0,309.0
16:36:09,-1471.0,312.0,309.0
16:36:09,-1471.0,312.0,309.0
16:36:09,-1471.0,312.0,309.0
16:36:09,-1451.0,311.0,309.0
16:36:09,-1451.0,311.0,309.0
16:36:09,-1451.0,311.0,309.0
16:36:09,-1451.0,311.0,309.0
16:36:09,-1394.0,310.0,309.0
16:36:09,-1394.0,310.0,309.0
16:36:09,-1394.0,310.0,309.0
16:36:09,-1394.0,310.0,309.0
16:36:09,-1454.0,311.0,309.0
16:36:09,-1454.0,311.0,309.0
16:36:09,-1454.0,311.0,309.0
16:36:09,-1454.0,311.0,309.0
16:36:09,-1507.0,312.0,310.0
16:36:09,-1507.0,312.0,310.0
16:36:09,-1507.0,312.0,310.0
16:36:09,-1507.0,312.0,310.0
16:36:09,-1515.0,311.0,308.0
16:36:09,-1515.0,311.0,308.0
16:36:09,-1515.0,311.0,308.0
16:36:09,-1515.0,311.0,308.0
16:36:09,-1524.0,312.0,310.0
16:36:09,-1524.0,312.0,310.0
16:36:09,-1524.0,312.0,310.0
16:36:09,-1524.0,312.0,310.0
16:36:09,-1522.0,311.0,310.0
16:36:09,-1522.0,311.0,310.0
16:36:09,-1522.0,311.0,310.0
16:36:09,-1522.0,311.0,310.0
16:36:09,-255.0,311.0,310.0
16:36:09,-255.0,311.0,310.0
16:36:09,-255.0,311.0,310.0
16:36:09,-255.0,311.0,310.0
16:36:09,-1223.0,310.0,311.0
16:36:09,-1223.0,310.0,311.0
16:36:09,-1223.0,310.0,311.0
16:36:09,-1223.0,310.0,311.0
16:36:09,-1542.0,312.0,310.0
16:36:09,-1542.0,312.0,310.0
16:36:09,-1542.0,312.0,310.0
16:36:09,-1542.0,312.0,310.0
16:36:09,-1577.0,313.0,309.0
16:36:09,-1577.0,313.0,309.0
16:36:09,-1577.0,313.0,309.0
16:36:09,-1577.0,313.0,309.0
16:36:09,-1530.0,311.0,310.0
16:36:09,-1530.0,311.0,310.0
16:36:09,-1530.0,311.0,310.0
16:36:09,-1530.0,311.0,310.0
16:36:09,-1513.0,313.0,310.0
16:36:09,-1513.0,313.0,310.0
16:36:09,-1513.0,313.0,310.0
16:36:09,-1513.0,313.0,310.0
16:36:09,-1499.0,311.0,311.0
16:36:09,-1499.0,311.0,311.0
16:36:09,-1499.0,311.0,311.0
16:36:09,-1499.0,311.0,311.0
16:36:09,-1448.0,312.0,309.0
16:36:09,-1448.0,312.0,309.0
16:36:09,-1448.0,312.0,309.0
16:36:09,-1448.0,312.0,309.0
16:36:09,-1364.0,311.0,310.0
16:36:09,-1364.0,311.0,310.0
16:36:09,-1364.0,311.0,310.0
16:36:09,-1364.0,311.0,310.0
16:36:09,-1273.0,313.0,309.0
16:36:09,-1273.0,313.0,309.0
16:36:09,-1273.0,313.0,309.0
16:36:09,-1273.0,313.0,309.0
16:36:09,-1243.0,312.0,309.0
16:36:09,-1243.0,312.0,309.0
16:36:09,-1243.0,312.0,309.0
16:36:09,-1243.0,312.0,309.0
16:36:09,-1341.0,312.0,311.0
16:36:09,-1341.0,312.0,311.0
16:36:09,-1341.0,312.0,311.0
16:36:09,-1341.0,312.0,311.0
16:36:09,-1508.0,311.0,310.0
16:36:09,-1508.0,311.0,310.0
16:36:09,-1508.0,311.0,310.0
16:36:09,-1508.0,311.0,310.0
16:36:09,-1639.0,311.0,310.0
16:36:09,-1639.0,311.0,310.0
16:36:09,-1639.0,311.0,310.0
16:36:10,-1639.0,311.0,310.0
16:36:10,-1677.0,311.0,310.0
16:36:10,-1677.0,311.0,310.0
16:36:10,-1677.0,311.0,310.0
16:36:10,-1677.0,311.0,310.0
16:36:10,-1659.0,312.0,310.0
16:36:10,-1659.0,312.0,310.0
16:36:10,-1659.0,312.0,310.0
16:36:10,-1659.0,312.0,310.0
16:36:10,-1628.0,311.0,309.0
16:36:10,-1628.0,311.0,309.0
16:36:10,-1628.0,311.0,309.0
16:36:10,-1628.0,311.0,309.0
16:36:10,-1643.0,311.0,308.0
16:36:10,-1643.0,311.0,308.0
16:36:10,-1643.0,311.0,308.0
16:36:10,-1643.0,311.0,308.0
16:36:10,-1617.0,311.0,309.0
16:36:10,-1617.0,311.0,309.0
16:36:10,-1617.0,311.0,309.0
16:36:10,-1617.0,311.0,309.0
16:36:10,-1619.0,311.0,310.0
16:36:10,-1619.0,311.0,310.0
16:36:10,-1619.0,311.0,310.0
16:36:10,-1619.0,311.0,310.0
16:36:10,-1631.0,311.0,309.0
16:36:10,-1631.0,311.0,309.0
16:36:10,-1631.0,311.0,309.0
16:36:10,-1631.0,311.0,309.0
16:36:10,-1594.0,311.0,309.0
16:36:10,-1594.0,311.0,309.0
16:36:10,-1594.0,311.0,309.0
16:36:10,-1594.0,311.0,309.0
16:36:10,-1619.0,311.0,309.0
16:36:10,-1619.0,311.0,309.0
16:36:10,-1619.0,311.0,309.0
16:36:10,-1619.0,311.0,309.0
16:36:10,-1629.0,311.0,309.0
16:36:10,-1629.0,311.0,309.0
16:36:10,-1629.0,311.0,309.0
16:36:10,-1629.0,311.0,309.0
16:36:10,-1617.0,311.0,310.0
16:36:10,-1617.0,311.0,310.0
16:36:10,-1617.0,311.0,310.0
16:36:10,-1617.0,311.0,310.0
16:36:10,-1624.0,312.0,308.0
16:36:10,-1624.0,312.0,308.0
16:36:10,-1624.0,312.0,308.0
16:36:10,-1624.0,312.0,308.0
16:36:10,-1604.0,310.0,310.0
16:36:10,-1604.0,310.0,310.0
16:36:10,-1604.0,310.0,310.0
16:36:10,-1604.0,310.0,310.0
16:36:10,-1593.0,310.0,309.0
16:36:10,-1593.0,310.0,309.0
16:36:10,-1593.0,310.0,309.0
16:36:10,-1593.0,310.0,309.0
16:36:10,-1599.0,310.0,309.0
16:36:10,-1599.0,310.0,309.0
16:36:10,-1599.0,310.0,309.0
16:36:10,-1599.0,310.0,309.0
16:36:10,-1525.0,311.0,309.0
16:36:10,-1525.0,311.0,309.0
16:36:10,-1525.0,311.0,309.0
16:36:10,-1525.0,311.0,309.0
16:36:10,-1659.0,310.0,309.0
16:36:10,-1659.0,310.0,309.0
16:36:10,-1659.0,310.0,309.0
16:36:10,-1659.0,310.0,309.0
16:36:10,-1635.0,311.0,308.0
16:36:10,-1635.0,311.0,308.0
16:36:10,-1635.0,311.0,308.0
16:36:10,-1635.0,311.0,308.0
16:36:10,-1633.0,310.0,308.0
16:36:10,-1633.0,310.0,308.0
16:36:10,-1633.0,310.0,308.0
16:36:10,-1633.0,310.0,308.0
16:36:10,-1685.0,312.0,309.0
16:36:10,-1685.0,312.0,309.0
16:36:10,-1685.0,312.0,309.0
16:36:10,-1685.0,312.0,309.0
16:36:10,-1549.0,311.0,309.0
16:36:10,-1549.0,311.0,309.0
16:36:10,-1549.0,311.0,309.0
16:36:10,-1549.0,311.0,309.0
16:36:10,-419.0,311.0,308.0
16:36:10,-419.0,311.0,308.0
16:36:10,-419.0,311.0,308.0
16:36:10,-419.0,311.0,308.0
16:36:10,-1416.0,312.0,308.0
16:36:10,-1416.0,312.0,308.0
16:36:10,-1416.0,312.0,308.0
16:36:10,-1416.0,312.0,308.0
16:36:10,-1651.0,310.0,308.0
16:36:10,-1651.0,310.0,308.0
16:36:10,-1651.0,310.0,308.0
16:36:10,-1651.0,310.0,308.0
16:36:10,-1664.0,313.0,308.0
16:36:10,-1664.0,313.0,308.0
16:36:10,-1664.0,313.0,308.0
16:36:10,-1664.0,313.0,308.0
16:36:10,-1644.0,310.0,308.0
16:36:10,-1644.0,310.0,308.0
16:36:10,-1644.0,310.0,308.0
16:36:10,-1644.0,310.0,308.0
16:36:10,-1593.0,311.0,309.0
16:36:10,-1593.0,311.0,309.0
16:36:10,-1593.0,311.0,309.0
16:36:10,-1593.0,311.0,309.0
16:36:10,-1550.0,311.0,309.0
16:36:10,-1550.0,311.0,309.0
16:36:10,-1550.0,311.0,309.0
16:36:10,-1550.0,311.0,309.0
16:36:10,-1546.0,311.0,308.0
16:36:10,-1546.0,311.0,308.0
16:36:10,-1546.0,311.0,308.0
16:36:10,-1546.0,311.0,308.0
16:36:10,-1438.0,311.0,308.0
16:36:10,-1438.0,311.0,308.0
16:36:10,-1438.0,311.0,308.0
16:36:10,-1438.0,311.0,308.0
16:36:10,-1348.0,312.0,309.0
16:36:10,-1348.0,312.0,309.0
16:36:10,-1348.0,312.0,309.0
16:36:10,-1348.0,312.0,309.0
16:36:10,-1389.0,312.0,308.0
16:36:10,-1389.0,312.0,308.0
16:36:10,-1389.0,312.0,308.0
16:36:10,-1389.0,312.0,308.0
16:36:10,-1469.0,312.0,308.0
16:36:10,-1469.0,312.0,308.0
16:36:10,-1469.0,312.0,308.0
16:36:10,-1469.0,312.0,308.0
16:36:10,-1642.0,311.0,310.0
16:36:10,-1642.0,311.0,310.0
16:36:10,-1642.0,311.0,310.0
16:36:10,-1642.0,311.0,310.0
16:36:10,-1721.0,311.0,309.0
16:36:10,-1721.0,311.0,309.0
16:36:10,-1721.0,311.0,309.0
16:36:10,-1721.0,311.0,309.0
16:36:10,-1767.0,313.0,308.0
16:36:10,-1767.0,313.0,308.0
16:36:10,-1767.0,313.0,308.0
16:36:10,-1767.0,313.0,308.0
16:36:10,-1774.0,312.0,310.0
16:36:10,-1774.0,312.0,310.0
16:36:10,-1774.0,312.0,310.0
16:36:10,-1774.0,312.0,310.0
16:36:10,-1752.0,311.0,310.0
16:36:10,-1752.0,311.0,310.0
16:36:10,-1752.0,311.0,310.0
16:36:10,-1752.0,311.0,310.0
16:36:10,-1727.0,312.0,310.0
16:36:10,-1727.0,312.0,310.0
16:36:10,-1727.0,312.0,310.0
16:36:10,-1727.0,312.0,310.0
16:36:10,-1718.0,313.0,310.0
16:36:10,-1718.0,313.0,310.0
16:36:10,-1718.0,313.0,310.0
16:36:10,-1718.0,313.0,310.0
16:36:10,-1725.0,312.0,309.0
16:36:10,-1725.0,312.0,309.0
16:36:10,-1725.0,312.0,309.0
16:36:10,-1725.0,312.0,309.0
16:36:10,-1717.0,312.0,310.0
16:36:10,-1717.0,312.0,310.0
16:36:10,-1717.0,312.0,310.0
16:36:10,-1717.0,312.0,310.0
16:36:10,-1700.0,311.0,310.0
16:36:10,-1700.0,311.0,310.0
16:36:10,-1700.0,311.0,310.0
16:36:10,-1700.0,311.0,310.0
16:36:10,-1697.0,311.0,309.0
16:36:10,-1697.0,311.0,309.0
16:36:10,-1697.0,311.0,309.0
16:36:10,-1697.0,311.0,309.0
16:36:10,-1672.0,311.0,310.0
16:36:10,-1672.0,311.0,310.0
16:36:10,-1672.0,311.0,310.0
16:36:10,-1672.0,311.0,310.0
16:36:10,-1688.0,310.0,309.0
16:36:10,-1688.0,310.0,309.0
16:36:10,-1688.0,310.0,309.0
16:36:10,-1688.0,310.0,309.0
16:36:10,-1667.0,311.0,310.0
16:36:10,-1667.0,311.0,310.0
16:36:10,-1667.0,311.0,310.0
16:36:10,-1667.0,311.0,310.0
16:36:10,-1637.0,311.0,310.0
16:36:10,-1637.0,311.0,310.0
16:36:10,-1637.0,311.0,310.0
16:36:10,-1637.0,311.0,310.0
16:36:10,-1600.0,312.0,310.0
16:36:10,-1600.0,312.0,310.0
16:36:10,-1600.0,312.0,310.0
16:36:10,-1600.0,312.0,310.0
16:36:10,-1644.0,312.0,308.0
16:36:10,-1644.0,312.0,308.0
16:36:10,-1644.0,312.0,308.0
16:36:10,-1644.0,312.0,308.0
16:36:11,-1691.0,311.0,309.0
16:36:11,-1691.0,311.0,309.0
16:36:11,-1691.0,311.0,309.0
16:36:11,-1691.0,311.0,309.0
16:36:11,-1699.0,311.0,309.0
16:36:11,-1699.0,311.0,309.0
16:36:11,-1699.0,311.0,309.0
16:36:11,-1699.0,311.0,309.0
16:36:11,-1694.0,310.0,310.0
16:36:11,-1694.0,310.0,310.0
16:36:11,-1694.0,310.0,310.0
16:36:11,-1694.0,310.0,310.0
16:36:11,-1865.0,311.0,310.0
16:36:11,-1865.0,311.0,310.0
16:36:11,-1865.0,311.0,310.0
16:36:11,-1865.0,311.0,310.0
16:36:11,-715.0,312.0,309.0
16:36:11,-715.0,312.0,309.0
16:36:11,-715.0,312.0,309.0
16:36:11,-715.0,312.0,309.0
16:36:11,-895.0,311.0,309.0
16:36:11,-895.0,311.0,309.0
16:36:11,-895.0,311.0,309.0
16:36:11,-895.0,311.0,309.0
16:36:11,-1658.0,310.0,308.0
16:36:11,-1658.0,310.0,308.0
16:36:11,-1658.0,310.0,308.0
16:36:11,-1658.0,310.0,308.0
16:36:11,-1748.0,311.0,311.0
16:36:11,-1748.0,311.0,311.0
16:36:11,-1748.0,311.0,311.0
16:36:11,-1748.0,311.0,311.0
16:36:11,-1748.0,311.0,310.0
16:36:11,-1748.0,311.0,310.0
16:36:11,-1748.0,311.0,310.0
16:36:11,-1748.0,311.0,310.0
16:36:11,-1709.0,310.0,309.0
16:36:11,-1709.0,310.0,309.0
16:36:11,-1709.0,310.0,309.0
16:36:11,-1709.0,310.0,309.0
16:36:11,-1682.0,313.0,309.0
16:36:11,-1682.0,313.0,309.0
16:36:11,-1682.0,313.0,309.0
16:36:11,-1682.0,313.0,309.0
16:36:11,-1674.0,311.0,311.0
16:36:11,-1674.0,311.0,311.0
16:36:11,-1674.0,311.0,311.0
16:36:11,-1674.0,311.0,311.0
16:36:11,-1557.0,311.0,310.0
16:36:11,-1557.0,311.0,310.0
16:36:11,-1557.0,311.0,310.0
16:36:11,-1557.0,311.0,310.0
16:36:11,-1471.0,312.0,310.0
16:36:11,-1471.0,312.0,310.0
16:36:11,-1471.0,312.0,310.0
16:36:11,-1471.0,312.0,310.0
16:36:11,-1425.0,312.0,310.0
16:36:11,-1425.0,312.0,310.0
16:36:11,-1425.0,312.0,310.0
16:36:11,-1425.0,312.0,310.0
16:36:11,-1476.0,312.0,311.0
16:36:11,-1476.0,312.0,311.0
16:36:11,-1476.0,312.0,311.0
16:36:11,-1476.0,312.0,311.0
16:36:11,-1659.0,312.0,310.0
16:36:11,-1659.0,312.0,310.0
16:36:11,-1659.0,312.0,310.0
16:36:11,-1659.0,312.0,310.0
16:36:11,-1768.0,310.0,311.0
16:36:11,-1768.0,310.0,311.0
16:36:11,-1768.0,310.0,311.0
16:36:11,-1768.0,310.0,311.0
16:36:11,-1800.0,311.0,310.0
16:36:11,-1800.0,311.0,310.0
16:36:11,-1800.0,311.0,310.0
16:36:11,-1800.0,311.0,310.0
16:36:11,-1784.0,311.0,310.0
16:36:11,-1784.0,311.0,310.0
16:36:11,-1784.0,311.0,310.0
16:36:11,-1784.0,311.0,310.0
16:36:11,-1785.0,311.0,310.0
16:36:11,-1785.0,311.0,310.0
16:36:11,-1785.0,311.0,310.0
16:36:11,-1785.0,311.0,310.0
16:36:11,-1766.0,312.0,310.0
16:36:11,-1766.0,312.0,310.0
16:36:11,-1766.0,312.0,310.0
16:36:11,-1766.0,312.0,310.0
16:36:11,-1743.0,311.0,311.0
16:36:11,-1743.0,311.0,311.0
16:36:11,-1743.0,311.0,311.0
16:36:11,-1743.0,311.0,311.0
16:36:11,-1754.0,312.0,310.0
16:36:11,-1754.0,312.0,310.0
16:36:11,-1754.0,312.0,310.0
16:36:11,-1754.0,312.0,310.0
16:36:11,-1728.0,313.0,310.0
16:36:11,-1728.0,313.0,310.0
16:36:11,-1728.0,313.0,310.0
16:36:11,-1728.0,313.0,310.0
16:36:11,-1737.0,310.0,311.0
16:36:11,-1737.0,310.0,311.0
16:36:11,-1737.0,310.0,311.0
16:36:11,-1737.0,310.0,311.0
16:36:11,-1734.0,310.0,309.0
16:36:11,-1734.0,310.0,309.0
16:36:11,-1734.0,310.0,309.0
16:36:11,-1734.0,310.0,309.0
16:36:11,-1751.0,311.0,309.0
16:36:11,-1751.0,311.0,309.0
16:36:11,-1751.0,311.0,309.0
16:36:11,-1751.0,311.0,309.0
16:36:11,-1730.0,310.0,309.0
16:36:11,-1730.0,310.0,309.0
16:36:11,-1730.0,310.0,309.0
16:36:11,-1730.0,310.0,309.0
16:36:11,-1715.0,311.0,308.0
16:36:11,-1715.0,311.0,308.0
16:36:11,-1715.0,311.0,308.0
16:36:11,-1715.0,311.0,308.0
16:36:11,-1643.0,312.0,309.0
16:36:11,-1643.0,312.0,309.0
16:36:11,-1643.0,312.0,309.0
16:36:11,-1643.0,312.0,309.0
16:36:11,-1681.0,311.0,309.0
16:36:11,-1681.0,311.0,309.0
16:36:11,-1681.0,311.0,309.0
16:36:11,-1681.0,311.0,309.0
16:36:11,-1772.0,311.0,309.0
16:36:11,-1772.0,311.0,309.0
16:36:11,-1772.0,311.0,309.0
16:36:11,-1772.0,311.0,309.0
16:36:11,-1769.0,312.0,310.0
16:36:11,-1769.0,312.0,310.0
16:36:11,-1769.0,312.0,310.0
16:36:11,-1769.0,312.0,310.0
16:36:11,-1732.0,312.0,309.0
16:36:11,-1732.0,312.0,309.0
16:36:11,-1732.0,312.0,309.0
16:36:11,-1732.0,312.0,309.0
16:36:11,-1891.0,311.0,310.0
16:36:11,-1891.0,311.0,310.0
16:36:11,-1891.0,311.0,310.0
16:36:11,-1891.0,311.0,310.0
16:36:11,-651.0,312.0,309.0
16:36:11,-651.0,312.0,309.0
16:36:11,-651.0,312.0,309.0
16:36:11,-651.0,312.0,309.0
16:36:11,-820.0,312.0,310.0
16:36:11,-820.0,312.0,310.0
16:36:11,-820.0,312.0,310.0
16:36:11,-820.0,312.0,310.0
16:36:11,-1635.0,312.0,310.0
16:36:11,-1635.0,312.0,310.0
16:36:11,-1635.0,312.0,310.0
16:36:11,-1635.0,312.0,310.0
16:36:11,-1726.0,311.0,311.0
16:36:11,-1726.0,311.0,311.0
16:36:11,-1726.0,311.0,311.0
16:36:11,-1726.0,311.0,311.0
16:36:11,-1723.0,311.0,310.0
16:36:11,-1723.0,311.0,310.0
16:36:11,-1723.0,311.0,310.0
16:36:11,-1723.0,311.0,310.0
16:36:11,-1707.0,311.0,310.0
16:36:11,-1707.0,311.0,310.0
16:36:11,-1707.0,311.0,310.0
16:36:11,-1707.0,311.0,310.0
16:36:11,-1657.0,312.0,311.0
16:36:11,-1657.0,312.0,311.0
16:36:11,-1657.0,312.0,311.0
16:36:11,-1657.0,312.0,311.0
16:36:11,-1630.0,312.0,310.0
16:36:11,-1630.0,312.0,310.0
16:36:11,-1630.0,312.0,310.0
16:36:11,-1630.0,312.0,310.0
16:36:11,-1555.0,311.0,309.0
16:36:11,-1555.0,311.0,309.0
16:36:11,-1555.0,311.0,309.0
16:36:11,-1555.0,311.0,309.0
16:36:11,-1471.0,313.0,309.0
16:36:11,-1471.0,313.0,309.0
16:36:11,-1471.0,313.0,309.0
16:36:11,-1471.0,313.0,309.0
16:36:11,-1412.0,312.0,308.0
16:36:11,-1412.0,312.0,308.0
16:36:11,-1412.0,312.0,308.0
16:36:11,-1412.0,312.0,308.0
16:36:11,-1431.0,312.0,310.0
16:36:11,-1431.0,312.0,310.0
16:36:11,-1431.0,312.0,310.0
16:36:11,-1431.0,312.0,310.0
16:36:11,-1607.0,311.0,310.0
16:36:11,-1607.0,311.0,310.0
16:36:11,-1607.0,311.0,310.0
16:36:11,-1607.0,311.0,310.0
16:36:11,-1755.0,311.0,309.0
16:36:11,-1755.0,311.0,309.0
16:36:11,-1755.0,311.0,309.0
16:36:11,-1755.0,311.0,309.0
16:36:11,-1739.0,312.0,309.0
16:36:12,-1739.0,312.0,309.0
16:36:12,-1739.0,312.0,309.0
16:36:12,-1739.0,312.0,309.0
16:36:12,-1760.0,311.0,311.0
16:36:12,-1760.0,311.0,311.0
16:36:12,-1760.0,311.0,311.0
16:36:12,-1760.0,311.0,311.0
16:36:12,-1741.0,311.0,310.0
16:36:12,-1741.0,311.0,310.0
16:36:12,-1741.0,311.0,310.0
16:36:12,-1741.0,311.0,310.0
16:36:12,-1755.0,311.0,310.0
16:36:12,-1755.0,311.0,310.0
16:36:12,-1755.0,311.0,310.0
16:36:12,-1755.0,311.0,310.0
16:36:12,-1731.0,311.0,309.0
16:36:12,-1731.0,311.0,309.0
16:36:12,-1731.0,311.0,309.0
16:36:12,-1731.0,311.0,309.0
16:36:12,-1727.0,312.0,310.0
16:36:12,-1727.0,312.0,310.0
16:36:12,-1727.0,312.0,310.0
16:36:12,-1727.0,312.0,310.0
16:36:12,-1715.0,310.0,309.0
16:36:12,-1715.0,310.0,309.0
16:36:12,-1715.0,310.0,309.0
16:36:12,-1715.0,310.0,309.0
16:36:12,-1685.0,311.0,308.0
16:36:12,-1685.0,311.0,308.0
16:36:12,-1685.0,311.0,308.0
16:36:12,-1685.0,311.0,308.0
16:36:12,-1710.0,312.0,309.0
16:36:12,-1710.0,312.0,309.0
16:36:12,-1710.0,312.0,309.0
16:36:12,-1710.0,312.0,309.0
16:36:12,-1723.0,310.0,309.0
16:36:12,-1723.0,310.0,309.0
16:36:12,-1723.0,310.0,309.0
16:36:12,-1723.0,310.0,309.0
16:36:12,-1709.0,311.0,309.0
16:36:12,-1709.0,311.0,309.0
16:36:12,-1709.0,311.0,309.0
16:36:12,-1709.0,311.0,309.0
16:36:12,-1711.0,311.0,308.0
16:36:12,-1711.0,311.0,308.0
16:36:12,-1711.0,311.0,308.0
16:36:12,-1711.0,311.0,308.0
16:36:12,-1715.0,311.0,310.0
16:36:12,-1715.0,311.0,310.0
16:36:12,-1715.0,311.0,310.0
16:36:12,-1715.0,311.0,310.0
16:36:12,-1697.0,313.0,310.0
16:36:12,-1697.0,313.0,310.0
16:36:12,-1697.0,313.0,310.0
16:36:12,-1697.0,313.0,310.0
16:36:12,-1689.0,312.0,311.0
16:36:12,-1689.0,312.0,311.0
16:36:12,-1689.0,312.0,311.0
16:36:12,-1689.0,312.0,311.0
16:36:12,-1725.0,313.0,310.0
16:36:12,-1725.0,313.0,310.0
16:36:12,-1725.0,313.0,310.0
16:36:12,-1725.0,313.0,310.0
16:36:12,-1627.0,313.0,310.0
16:36:12,-1627.0,313.0,310.0
16:36:12,-1627.0,313.0,310.0
16:36:12,-1627.0,313.0,310.0
16:36:12,-1682.0,311.0,309.0
16:36:12,-1682.0,311.0,309.0
16:36:12,-1682.0,311.0,309.0
16:36:12,-1682.0,311.0,309.0
16:36:12,-1740.0,312.0,309.0
16:36:12,-1740.0,312.0,309.0
16:36:12,-1740.0,312.0,309.0
16:36:12,-1740.0,312.0,309.0
16:36:12,-1744.0,311.0,311.0
16:36:12,-1744.0,311.0,311.0
16:36:12,-1744.0,311.0,311.0
16:36:12,-1744.0,311.0,311.0
16:36:12,-1755.0,311.0,309.0
16:36:12,-1755.0,311.0,309.0
16:36:12,-1755.0,311.0,309.0
16:36:12,-1755.0,311.0,309.0
16:36:12,-1930.0,313.0,310.0
16:36:12,-1930.0,313.0,310.0
16:36:12,-1930.0,313.0,310.0
16:36:12,-1930.0,313.0,310.0
16:36:12,-512.0,312.0,310.0
16:36:12,-512.0,312.0,310.0
16:36:12,-512.0,312.0,310.0
16:36:12,-512.0,312.0,310.0
16:36:12,-850.0,312.0,309.0
16:36:12,-850.0,312.0,309.0
16:36:12,-850.0,312.0,309.0
16:36:12,-850.0,312.0,309.0
16:36:12,-1694.0,310.0,311.0
16:36:12,-1694.0,310.0,311.0
16:36:12,-1694.0,310.0,311.0
16:36:12,-1694.0,310.0,311.0
16:36:12,-1767.0,311.0,311.0
16:36:12,-1767.0,311.0,311.0
16:36:12,-1767.0,311.0,311.0
16:36:12,-1767.0,311.0,311.0
16:36:12,-1737.0,311.0,309.0
16:36:12,-1737.0,311.0,309.0
16:36:12,-1737.0,311.0,309.0
16:36:12,-1737.0,311.0,309.0
16:36:12,-1715.0,312.0,309.0
16:36:12,-1715.0,312.0,309.0
16:36:12,-1715.0,312.0,309.0
16:36:12,-1715.0,312.0,309.0
16:36:12,-1668.0,311.0,311.0
16:36:12,-1668.0,311.0,311.0
16:36:12,-1668.0,311.0,311.0
16:36:12,-1668.0,311.0,311.0
16:36:12,-1592.0,311.0,310.0
16:36:12,-1592.0,311.0,310.0
16:36:12,-1592.0,311.0,310.0
16:36:12,-1592.0,311.0,310.0
16:36:12,-1534.0,312.0,309.0
16:36:12,-1534.0,312.0,309.0
16:36:12,-1534.0,312.0,309.0
16:36:12,-1534.0,312.0,309.0
16:36:12,-1437.0,312.0,310.0
16:36:12,-1437.0,312.0,310.0
16:36:12,-1437.0,312.0,310.0
16:36:12,-1437.0,312.0,310.0
16:36:12,-1344.0,312.0,310.0
16:36:12,-1344.0,312.0,310.0
16:36:12,-1344.0,312.0,310.0
16:36:12,-1344.0,312.0,310.0
16:36:12,-1416.0,311.0,310.0
16:36:12,-1416.0,311.0,310.0
16:36:12,-1416.0,311.0,310.0
16:36:12,-1416.0,311.0,310.0
16:36:12,-1547.0,312.0,310.0
16:36:12,-1547.0,312.0,310.0
16:36:12,-1547.0,312.0,310.0
16:36:12,-1547.0,312.0,310.0
16:36:12,-1667.0,312.0,310.0
16:36:12,-1667.0,312.0,310.0
16:36:12,-1667.0,312.0,310.0
16:36:12,-1667.0,312.0,310.0
16:36:12,-1723.0,311.0,311.0
16:36:12,-1723.0,311.0,311.0
16:36:12,-1723.0,311.0,311.0
16:36:12,-1723.0,311.0,311.0
16:36:12,-1720.0,311.0,311.0
16:36:12,-1720.0,311.0,311.0
16:36:12,-1720.0,311.0,311.0
16:36:12,-1720.0,311.0,311.0
16:36:12,-1691.0,312.0,309.0
16:36:12,-1691.0,312.0,309.0
16:36:12,-1691.0,312.0,309.0
16:36:12,-1691.0,312.0,309.0
16:36:12,-1701.0,311.0,311.0
16:36:12,-1701.0,311.0,311.0
16:36:12,-1701.0,311.0,311.0
16:36:12,-1701.0,311.0,311.0
16:36:12,-1663.0,311.0,309.0
16:36:12,-1663.0,311.0,309.0
16:36:12,-1663.0,311.0,309.0
16:36:12,-1663.0,311.0,309.0
16:36:12,-1655.0,311.0,308.0
16:36:12,-1655.0,311.0,308.0
16:36:12,-1655.0,311.0,308.0
16:36:12,-1655.0,311.0,308.0
16:36:12,-1638.0,310.0,310.0
16:36:12,-1638.0,310.0,310.0
16:36:12,-1638.0,310.0,310.0
16:36:12,-1638.0,310.0,310.0
16:36:12,-1632.0,312.0,310.0
16:36:12,-1632.0,312.0,310.0
16:36:12,-1632.0,312.0,310.0
16:36:12,-1632.0,312.0,310.0
16:36:12,-1657.0,311.0,311.0
16:36:12,-1657.0,311.0,311.0
16:36:12,-1657.0,311.0,311.0
16:36:12,-1657.0,311.0,311.0
16:36:12,-1643.0,311.0,309.0
16:36:12,-1643.0,311.0,309.0
16:36:12,-1643.0,311.0,309.0
16:36:12,-1643.0,311.0,309.0
16:36:12,-1634.0,311.0,310.0
16:36:12,-1634.0,311.0,310.0
16:36:12,-1634.0,311.0,310.0
16:36:12,-1634.0,311.0,310.0
16:36:12,-1611.0,311.0,310.0
16:36:12,-1611.0,311.0,310.0
16:36:12,-1611.0,311.0,310.0
16:36:12,-1611.0,311.0,310.0
16:36:12,-1589.0,311.0,307.0
16:36:12,-1589.0,311.0,307.0
16:36:12,-1589.0,311.0,307.0
16:36:12,-1589.0,311.0,307.0
16:36:12,-1570.0,311.0,310.0
16:36:12,-1570.0,311.0,310.0
16:36:12,-1570.0,311.0,310.0
16:36:12,-1570.0,311.0,310.0
16:36:12,-1552.0,312.0,310.0
16:36:12,-1552.0,312.0,310.0
16:36:13,-1552.0,312.0,310.0
16:36:13,-1552.0,312.0,310.0
16:36:13,-1624.0,311.0,309.0
16:36:13,-1624.0,311.0,309.0
16:36:13,-1624.0,311.0,309.0
16:36:13,-1624.0,311.0,309.0
16:36:13,-1632.0,310.0,310.0
16:36:13,-1632.0,310.0,310.0
16:36:13,-1632.0,310.0,310.0
16:36:13,-1632.0,310.0,310.0
16:36:13,-1616.0,312.0,310.0
16:36:13,-1616.0,312.0,310.0
16:36:13,-1616.0,312.0,310.0
16:36:13,-1616.0,312.0,310.0
16:36:13,-1677.0,311.0,309.0
16:36:13,-1677.0,311.0,309.0
16:36:13,-1677.0,311.0,309.0
16:36:13,-1677.0,311.0,309.0
16:36:13,-1149.0,310.0,310.0
16:36:13,-1149.0,310.0,310.0
16:36:13,-1149.0,310.0,310.0
16:36:13,-1149.0,310.0,310.0
16:36:13,-471.0,313.0,310.0
16:36:13,-471.0,313.0,310.0
16:36:13,-471.0,313.0,310.0
16:36:13,-471.0,313.0,310.0
16:36:13,-1503.0,311.0,310.0
16:36:13,-1503.0,311.0,310.0
16:36:13,-1503.0,311.0,310.0
16:36:13,-1503.0,311.0,310.0
16:36:13,-1609.0,313.0,310.0
16:36:13,-1609.0,313.0,310.0
16:36:13,-1609.0,313.0,310.0
16:36:13,-1609.0,313.0,310.0
16:36:13,-1628.0,313.0,309.0
16:36:13,-1628.0,313.0,309.0
16:36:13,-1628.0,313.0,309.0
16:36:13,-1628.0,313.0,309.0
16:36:13,-1596.0,312.0,310.0
16:36:13,-1596.0,312.0,310.0
16:36:13,-1596.0,312.0,310.0
16:36:13,-1596.0,312.0,310.0
16:36:13,-1575.0,312.0,310.0
16:36:13,-1575.0,312.0,310.0
16:36:13,-1575.0,312.0,310.0
16:36:13,-1575.0,312.0,310.0
16:36:13,-1520.0,312.0,310.0
16:36:13,-1520.0,312.0,310.0
16:36:13,-1520.0,312.0,310.0
16:36:13,-1520.0,312.0,310.0
16:36:13,-1468.0,311.0,310.0
16:36:13,-1468.0,311.0,310.0
16:36:13,-1468.0,311.0,310.0
16:36:13,-1468.0,311.0,310.0
16:36:13,-1391.0,313.0,309.0
16:36:13,-1391.0,313.0,309.0
16:36:13,-1391.0,313.0,309.0
16:36:13,-1391.0,313.0,309.0
16:36:13,-1312.0,312.0,309.0
16:36:13,-1312.0,312.0,309.0
16:36:13,-1312.0,312.0,309.0
16:36:13,-1312.0,312.0,309.0
16:36:13,-1275.0,311.0,309.0
16:36:13,-1275.0,311.0,309.0
16:36:13,-1275.0,311.0,309.0
16:36:13,-1275.0,311.0,309.0
16:36:13,-1416.0,312.0,310.0
16:36:13,-1416.0,312.0,310.0
16:36:13,-1416.0,312.0,310.0
16:36:13,-1416.0,312.0,310.0
16:36:13,-1567.0,310.0,310.0
16:36:13,-1567.0,310.0,310.0
16:36:13,-1567.0,310.0,310.0
16:36:13,-1567.0,310.0,310.0
16:36:13,-1639.0,313.0,310.0
16:36:13,-1639.0,313.0,310.0
16:36:13,-1639.0,313.0,310.0
16:36:13,-1639.0,313.0,310.0
16:36:13,-1623.0,313.0,310.0
16:36:13,-1623.0,313.0,310.0
16:36:13,-1623.0,313.0,310.0
16:36:13,-1623.0,313.0,310.0
16:36:13,-1626.0,311.0,310.0
16:36:13,-1626.0,311.0,310.0
16:36:13,-1626.0,311.0,310.0
16:36:13,-1626.0,311.0,310.0
16:36:13,-1563.0,312.0,309.0
16:36:13,-1563.0,312.0,309.0
16:36:13,-1563.0,312.0,309.0
16:36:13,-1563.0,312.0,309.0
16:36:13,-1605.0,312.0,310.0
16:36:13,-1605.0,312.0,310.0
16:36:13,-1605.0,312.0,310.0
16:36:13,-1605.0,312.0,310.0
16:36:13,-1578.0,311.0,309.0
16:36:13,-1578.0,311.0,309.0
16:36:13,-1578.0,311.0,309.0
16:36:13,-1578.0,311.0,309.0
16:36:13,-1569.0,312.0,309.0
16:36:13,-1569.0,312.0,309.0
16:36:13,-1569.0,312.0,309.0
16:36:13,-1569.0,312.0,309.0
16:36:13,-1548.0,313.0,309.0
16:36:13,-1548.0,313.0,309.0
16:36:13,-1548.0,313.0,309.0
16:36:13,-1548.0,313.0,309.0
16:36:13,-1564.0,312.0,310.0
16:36:13,-1564.0,312.0,310.0
16:36:13,-1564.0,312.0,310.0
16:36:13,-1564.0,312.0,310.0
16:36:13,-1550.0,312.0,310.0
16:36:13,-1550.0,312.0,310.0
16:36:13,-1550.0,312.0,310.0
16:36:13,-1550.0,312.0,310.0
16:36:13,-1489.0,313.0,310.0
16:36:13,-1489.0,313.0,310.0
16:36:13,-1489.0,313.0,310.0
16:36:13,-1489.0,313.0,310.0
16:36:13,-1502.0,312.0,310.0
16:36:13,-1502.0,312.0,310.0
16:36:13,-1502.0,312.0,310.0
16:36:13,-1502.0,312.0,310.0
16:36:13,-1470.0,312.0,310.0
16:36:13,-1470.0,312.0,310.0
16:36:13,-1470.0,312.0,310.0
16:36:13,-1470.0,312.0,310.0
16:36:13,-1521.0,310.0,311.0
16:36:13,-1521.0,310.0,311.0
16:36:13,-1521.0,310.0,311.0
16:36:13,-1521.0,310.0,311.0
16:36:13,-1558.0,312.0,309.0
16:36:13,-1558.0,312.0,309.0
16:36:13,-1558.0,312.0,309.0
16:36:13,-1558.0,312.0,309.0
16:36:13,-1538.0,312.0,309.0
16:36:13,-1538.0,312.0,309.0
16:36:13,-1538.0,312.0,309.0
16:36:13,-1538.0,312.0,309.0
16:36:13,-1557.0,311.0,310.0
16:36:13,-1557.0,311.0,310.0
16:36:13,-1557.0,311.0,310.0
16:36:13,-1557.0,311.0,310.0
16:36:13,-1711.0,312.0,309.0
16:36:13,-1711.0,312.0,309.0
16:36:13,-1711.0,312.0,309.0
16:36:13,-1711.0,312.0,309.0
16:36:13,-337.0,311.0,310.0
16:36:13,-337.0,311.0,310.0
16:36:13,-337.0,311.0,310.0
16:36:13,-337.0,311.0,310.0
16:36:13,-889.0,312.0,310.0
16:36:13,-889.0,312.0,310.0
16:36:13,-889.0,312.0,310.0
16:36:13,-889.0,312.0,310.0
16:36:13,-1491.0,311.0,311.0
16:36:13,-1491.0,311.0,311.0
16:36:13,-1491.0,311.0,311.0
16:36:13,-1491.0,311.0,311.0
16:36:13,-1544.0,312.0,310.0
16:36:13,-1544.0,312.0,310.0
16:36:13,-1544.0,312.0,310.0
16:36:13,-1544.0,312.0,310.0
16:36:13,-1530.0,312.0,310.0
16:36:13,-1530.0,312.0,310.0
16:36:13,-1530.0,312.0,310.0
16:36:13,-1530.0,312.0,310.0
16:36:13,-1498.0,311.0,310.0
16:36:13,-1498.0,311.0,310.0
16:36:13,-1498.0,311.0,310.0
16:36:13,-1498.0,311.0,310.0
16:36:13,-1451.0,311.0,310.0
16:36:13,-1451.0,311.0,310.0
16:36:13,-1451.0,311.0,310.0
16:36:13,-1451.0,311.0,310.0
16:36:13,-1397.0,312.0,311.0
16:36:13,-1397.0,312.0,311.0
16:36:13,-1397.0,312.0,311.0
16:36:13,-1397.0,312.0,311.0
16:36:13,-1348.0,312.0,310.0
16:36:13,-1348.0,312.0,310.0
16:36:13,-1348.0,312.0,310.0
16:36:13,-1348.0,312.0,310.0
16:36:13,-1280.0,311.0,310.0
16:36:13,-1280.0,311.0,310.0
16:36:13,-1280.0,311.0,310.0
16:36:13,-1280.0,311.0,310.0
16:36:13,-1215.0,310.0,310.0
16:36:13,-1215.0,310.0,310.0
16:36:13,-1215.0,310.0,310.0
16:36:13,-1215.0,310.0,310.0
16:36:13,-1281.0,310.0,309.0
16:36:13,-1281.0,310.0,309.0
16:36:13,-1281.0,310.0,309.0
16:36:13,-1281.0,310.0,309.0
16:36:13,-1428.0,313.0,308.0
16:36:13,-1428.0,313.0,308.0
16:36:13,-1428.0,313.0,308.0
16:36:13,-1428.0,313.0,308.0
16:36:13,-1550.0,311.0,309.0
16:36:13,-1550.0,311.0,309.0
16:36:13,-1550.0,311.0,309.0
16:36:14,-1550.0,311.0,309.0
16:36:14,-1580.0,313.0,308.0
16:36:14,-1580.0,313.0,308.0
16:36:14,-1580.0,313.0,308.0
16:36:14,-1580.0,313.0,308.0
16:36:14,-1538.0,311.0,309.0
16:36:14,-1538.0,311.0,309.0
16:36:14,-1538.0,311.0,309.0
16:36:14,-1538.0,311.0,309.0
16:36:14,-1533.0,310.0,310.0
16:36:14,-1533.0,310.0,310.0
16:36:14,-1533.0,310.0,310.0
16:36:14,-1533.0,310.0,310.0
16:36:14,-1531.0,312.0,308.0
16:36:14,-1531.0,312.0,308.0
16:36:14,-1531.0,312.0,308.0
16:36:14,-1531.0,312.0,308.0
16:36:14,-1518.0,312.0,309.0
16:36:14,-1518.0,312.0,309.0
16:36:14,-1518.0,312.0,309.0
16:36:14,-1518.0,312.0,309.0
16:36:14,-1490.0,310.0,310.0
16:36:14,-1490.0,310.0,310.0
16:36:14,-1490.0,310.0,310.0
16:36:14,-1490.0,310.0,310.0
16:36:14,-1487.0,312.0,309.0
16:36:14,-1487.0,312.0,309.0
16:36:14,-1487.0,312.0,309.0
16:36:14,-1487.0,312.0,309.0
16:36:14,-1469.0,312.0,310.0
16:36:14,-1469.0,312.0,310.0
16:36:14,-1469.0,312.0,310.0
16:36:14,-1469.0,312.0,310.0
16:36:14,-1468.0,312.0,311.0
16:36:14,-1468.0,312.0,311.0
16:36:14,-1468.0,312.0,311.0
16:36:14,-1468.0,312.0,311.0
16:36:14,-1470.0,312.0,310.0
16:36:14,-1470.0,312.0,310.0
16:36:14,-1470.0,312.0,310.0
16:36:14,-1470.0,312.0,310.0
16:36:14,-1439.0,312.0,309.0
16:36:14,-1439.0,312.0,309.0
16:36:14,-1439.0,312.0,309.0
16:36:14,-1439.0,312.0,309.0
16:36:14,-1418.0,311.0,310.0
16:36:14,-1418.0,311.0,310.0
16:36:14,-1418.0,311.0,310.0
16:36:14,-1418.0,311.0,310.0
16:36:14,-1506.0,311.0,310.0
16:36:14,-1506.0,311.0,310.0
16:36:14,-1506.0,311.0,310.0
16:36:14,-1506.0,311.0,310.0
16:36:14,-1476.0,310.0,311.0
16:36:14,-1476.0,310.0,311.0
16:36:14,-1476.0,310.0,311.0
16:36:14,-1476.0,310.0,311.0
16:36:14,-1523.0,311.0,311.0
16:36:14,-1523.0,311.0,311.0
16:36:14,-1523.0,311.0,311.0
16:36:14,-1523.0,311.0,311.0
16:36:14,-1588.0,311.0,309.0
16:36:14,-1588.0,311.0,309.0
16:36:14,-1588.0,311.0,309.0
16:36:14,-1588.0,311.0,309.0
16:36:14,-741.0,313.0,309.0
16:36:14,-741.0,313.0,309.0
16:36:14,-741.0,313.0,309.0
16:36:14,-741.0,313.0,309.0
16:36:14,-505.0,311.0,309.0
16:36:14,-505.0,311.0,309.0
16:36:14,-505.0,311.0,309.0
16:36:14,-505.0,311.0,309.0
16:36:14,-1390.0,313.0,309.0
16:36:14,-1390.0,313.0,309.0
16:36:14,-1390.0,313.0,309.0
16:36:14,-1390.0,313.0,309.0
16:36:14,-1522.0,311.0,310.0
16:36:14,-1522.0,311.0,310.0
16:36:14,-1522.0,311.0,310.0
16:36:14,-1522.0,311.0,310.0
16:36:14,-1480.0,311.0,311.0
16:36:14,-1480.0,311.0,311.0
16:36:14,-1480.0,311.0,311.0
16:36:14,-1480.0,311.0,311.0
16:36:14,-1470.0,311.0,309.0
16:36:14,-1470.0,311.0,309.0
16:36:14,-1470.0,311.0,309.0
16:36:14,-1470.0,311.0,309.0
16:36:14,-1432.0,311.0,310.0
16:36:14,-1432.0,311.0,310.0
16:36:14,-1432.0,311.0,310.0
16:36:14,-1432.0,311.0,310.0
16:36:14,-1341.0,311.0,310.0
16:36:14,-1341.0,311.0,310.0
16:36:14,-1341.0,311.0,310.0
16:36:14,-1341.0,311.0,310.0
16:36:14,-1301.0,311.0,309.0
16:36:14,-1301.0,311.0,309.0
16:36:14,-1301.0,311.0,309.0
16:36:14,-1301.0,311.0,309.0
16:36:14,-1207.0,311.0,310.0
16:36:14,-1207.0,311.0,310.0
16:36:14,-1207.0,311.0,310.0
16:36:14,-1207.0,311.0,310.0
16:36:14,-1168.0,311.0,310.0
16:36:14,-1168.0,311.0,310.0
16:36:14,-1168.0,311.0,310.0
16:36:14,-1168.0,311.0,310.0
16:36:14,-1157.0,311.0,308.0
16:36:14,-1157.0,311.0,308.0
16:36:14,-1157.0,311.0,308.0
16:36:14,-1157.0,311.0,308.0
16:36:14,-1277.0,311.0,310.0
16:36:14,-1277.0,311.0,310.0
16:36:14,-1277.0,311.0,310.0
16:36:14,-1277.0,311.0,310.0
16:36:14,-1435.0,312.0,308.0
16:36:14,-1435.0,312.0,308.0
16:36:14,-1435.0,312.0,308.0
16:36:14,-1435.0,312.0,308.0
16:36:14,-1495.0,312.0,308.0
16:36:14,-1495.0,312.0,308.0
16:36:14,-1495.0,312.0,308.0
16:36:14,-1495.0,312.0,308.0
16:36:14,-1464.0,312.0,310.0
16:36:14,-1464.0,312.0,310.0
16:36:14,-1464.0,312.0,310.0
16:36:14,-1464.0,312.0,310.0
16:36:14,-1458.0,312.0,311.0
16:36:14,-1458.0,312.0,311.0
16:36:14,-1458.0,312.0,311.0
16:36:14,-1458.0,312.0,311.0
16:36:14,-1456.0,311.0,310.0
16:36:14,-1456.0,311.0,310.0
16:36:14,-1456.0,311.0,310.0
16:36:14,-1456.0,311.0,310.0
16:36:14,-1433.0,312.0,310.0
16:36:14,-1433.0,312.0,310.0
16:36:14,-1433.0,312.0,310.0
16:36:14,-1433.0,312.0,310.0
16:36:14,-1430.0,312.0,309.0
16:36:14,-1430.0,312.0,309.0
16:36:14,-1430.0,312.0,309.0
16:36:14,-1430.0,312.0,309.0
16:36:14,-1399.0,312.0,310.0
16:36:14,-1399.0,312.0,310.0
16:36:14,-1399.0,312.0,310.0
16:36:14,-1399.0,312.0,310.0
16:36:14,-1457.0,312.0,310.0
16:36:14,-1457.0,312.0,310.0
16:36:14,-1457.0,312.0,310.0
16:36:14,-1457.0,312.0,310.0
16:36:14,-1425.0,309.0,311.0
16:36:14,-1425.0,309.0,311.0
16:36:14,-1425.0,309.0,311.0
16:36:14,-1425.0,309.0,311.0
16:36:14,-1417.0,312.0,309.0
16:36:14,-1417.0,312.0,309.0
16:36:14,-1417.0,312.0,309.0
16:36:14,-1417.0,312.0,309.0
16:36:14,-1421.0,312.0,309.0
16:36:14,-1421.0,312.0,309.0
16:36:14,-1421.0,312.0,309.0
16:36:14,-1421.0,312.0,309.0
16:36:14,-1384.0,312.0,309.0
16:36:14,-1384.0,312.0,309.0
16:36:14,-1384.0,312.0,309.0
16:36:14,-1384.0,312.0,309.0
16:36:14,-1366.0,310.0,311.0
16:36:14,-1366.0,310.0,311.0
16:36:14,-1366.0,310.0,311.0
16:36:14,-1366.0,310.0,311.0
16:36:14,-1365.0,311.0,309.0
16:36:14,-1365.0,311.0,309.0
16:36:14,-1365.0,311.0,309.0
16:36:14,-1365.0,311.0,309.0
16:36:14,-1426.0,310.0,309.0
16:36:14,-1426.0,310.0,309.0
16:36:14,-1426.0,310.0,309.0
16:36:14,-1426.0,310.0,309.0
16:36:14,-1442.0,311.0,309.0
16:36:14,-1442.0,311.0,309.0
16:36:14,-1442.0,311.0,309.0
16:36:14,-1442.0,311.0,309.0
16:36:14,-1441.0,310.0,311.0
16:36:14,-1441.0,310.0,311.0
16:36:14,-1441.0,310.0,311.0
16:36:14,-1441.0,310.0,311.0
16:36:14,-1493.0,311.0,311.0
16:36:14,-1493.0,311.0,311.0
16:36:14,-1493.0,311.0,311.0
16:36:14,-1493.0,311.0,311.0
16:36:14,-1049.0,312.0,309.0
16:36:14,-1049.0,312.0,309.0
16:36:14,-1049.0,312.0,309.0
16:36:14,-1049.0,312.0,309.0
16:36:14,-250.0,312.0,309.0
16:36:14,-250.0,312.0,309.0
16:36:14,-250.0,312.0,309.0
16:36:14,-250.0,312.0,309.0
16:36:15,-1290.0,312.0,310.0
16:36:15,-1290.0,312.0,310.0
16:36:15,-1290.0,312.0,310.0
16:36:15,-1290.0,312.0,310.0
16:36:15,-1447.0,313.0,309.0
16:36:15,-1447.0,313.0,309.0
16:36:15,-1447.0,313.0,309.0
16:36:15,-1447.0,313.0,309.0
16:36:15,-1460.0,313.0,310.0
16:36:15,-1460.0,313.0,310.0
16:36:15,-1460.0,313.0,310.0
16:36:15,-1460.0,313.0,310.0
16:36:15,-1463.0,312.0,309.0
16:36:15,-1463.0,312.0,309.0
16:36:15,-1463.0,312.0,309.0
16:36:15,-1463.0,312.0,309.0
16:36:15,-1422.0,311.0,309.0
16:36:15,-1422.0,311.0,309.0
16:36:15,-1422.0,311.0,309.0
16:36:15,-1422.0,311.0,309.0
16:36:15,-1376.0,311.0,309.0
16:36:15,-1376.0,311.0,309.0
16:36:15,-1376.0,311.0,309.0
16:36:15,-1376.0,311.0,309.0
16:36:15,-1324.0,312.0,310.0
16:36:15,-1324.0,312.0,310.0
16:36:15,-1324.0,312.0,310.0
16:36:15,-1324.0,312.0,310.0
16:36:15,-1222.0,311.0,309.0
16:36:15,-1222.0,311.0,309.0
16:36:15,-1222.0,311.0,309.0
16:36:15,-1222.0,311.0,309.0
16:36:15,-1165.0,311.0,310.0
16:36:15,-1165.0,311.0,310.0
16:36:15,-1165.0,311.0,310.0
16:36:15,-1165.0,311.0,310.0
16:36:15,-1142.0,311.0,308.0
16:36:15,-1142.0,311.0,308.0
16:36:15,-1142.0,311.0,308.0
16:36:15,-1142.0,311.0,308.0
16:36:15,-1264.0,311.0,310.0
16:36:15,-1264.0,311.0,310.0
16:36:15,-1264.0,311.0,310.0
16:36:15,-1264.0,311.0,310.0
16:36:15,-1416.0,311.0,310.0
16:36:15,-1416.0,311.0,310.0
16:36:15,-1416.0,311.0,310.0
16:36:15,-1416.0,311.0,310.0
16:36:15,-1492.0,311.0,310.0
16:36:15,-1492.0,311.0,310.0
16:36:15,-1492.0,311.0,310.0
16:36:15,-1492.0,311.0,310.0
16:36:15,-1491.0,312.0,309.0
16:36:15,-1491.0,312.0,309.0
16:36:15,-1491.0,312.0,309.0
16:36:15,-1491.0,312.0,309.0
16:36:15,-1473.0,312.0,309.0
16:36:15,-1473.0,312.0,309.0
16:36:15,-1473.0,312.0,309.0
16:36:15,-1473.0,312.0,309.0
16:36:15,-1466.0,313.0,310.0
16:36:15,-1466.0,313.0,310.0
16:36:15,-1466.0,313.0,310.0
16:36:15,-1466.0,313.0,310.0
16:36:15,-1446.0,311.0,310.0
16:36:15,-1446.0,311.0,310.0
16:36:15,-1446.0,311.0,310.0
16:36:15,-1446.0,311.0,310.0
16:36:15,-1445.0,312.0,309.0
16:36:15,-1445.0,312.0,309.0
16:36:15,-1445.0,312.0,309.0
16:36:15,-1445.0,312.0,309.0
16:36:15,-1459.0,313.0,310.0
16:36:15,-1459.0,313.0,310.0
16:36:15,-1459.0,313.0,310.0
16:36:15,-1459.0,313.0,310.0
16:36:15,-1462.0,313.0,310.0
16:36:15,-1462.0,313.0,310.0
16:36:15,-1462.0,313.0,310.0
16:36:15,-1462.0,313.0,310.0
16:36:15,-1451.0,311.0,310.0
16:36:15,-1451.0,311.0,310.0
16:36:15,-1451.0,311.0,310.0
16:36:15,-1451.0,311.0,310.0
16:36:15,-1430.0,312.0,310.0
16:36:15,-1430.0,312.0,310.0
16:36:15,-1430.0,312.0,310.0
16:36:15,-1430.0,312.0,310.0
16:36:15,-1460.0,311.0,310.0
16:36:15,-1460.0,311.0,310.0
16:36:15,-1460.0,311.0,310.0
16:36:15,-1460.0,311.0,310.0
16:36:15,-1457.0,312.0,309.0
16:36:15,-1457.0,312.0,309.0
16:36:15,-1457.0,312.0,309.0
16:36:15,-1457.0,312.0,309.0
16:36:15,-1440.0,310.0,309.0
16:36:15,-1440.0,310.0,309.0
16:36:15,-1440.0,310.0,309.0
16:36:15,-1440.0,310.0,309.0
16:36:15,-1395.0,310.0,308.0
16:36:15,-1395.0,310.0,308.0
16:36:15,-1395.0,310.0,308.0
16:36:15,-1395.0,310.0,308.0
16:36:15,-1341.0,311.0,309.0
16:36:15,-1341.0,311.0,309.0
16:36:15,-1341.0,311.0,309.0
16:36:15,-1341.0,311.0,309.0
16:36:15,-1440.0,311.0,308.0
16:36:15,-1440.0,311.0,308.0
16:36:15,-1440.0,311.0,308.0
16:36:15,-1440.0,311.0,308.0
16:36:15,-1432.0,312.0,309.0
16:36:15,-1432.0,312.0,309.0
16:36:15,-1432.0,312.0,309.0
16:36:15,-1432.0,312.0,309.0
16:36:15,-1411.0,311.0,309.0
16:36:15,-1411.0,311.0,309.0
16:36:15,-1411.0,311.0,309.0
16:36:15,-1411.0,311.0,309.0
16:36:15,-1476.0,312.0,310.0
16:36:15,-1476.0,312.0,310.0
16:36:15,-1476.0,312.0,310.0
16:36:15,-1476.0,312.0,310.0
16:36:15,-1372.0,311.0,310.0
16:36:15,-1372.0,311.0,310.0
16:36:15,-1372.0,311.0,310.0
16:36:15,-1372.0,311.0,310.0
16:36:15,-183.0,311.0,310.0
16:36:15,-183.0,311.0,310.0
16:36:15,-183.0,311.0,310.0
16:36:15,-183.0,311.0,310.0
16:36:15,-1208.0,313.0,310.0
16:36:15,-1208.0,313.0,310.0
16:36:15,-1208.0,313.0,310.0
16:36:15,-1208.0,313.0,310.0
16:36:15,-1433.0,311.0,311.0
16:36:15,-1433.0,311.0,311.0
16:36:15,-1433.0,311.0,311.0
16:36:15,-1433.0,311.0,311.0
16:36:15,-1444.0,312.0,309.0
16:36:15,-1444.0,312.0,309.0
16:36:15,-1444.0,312.0,309.0
16:36:15,-1444.0,312.0,309.0
16:36:15,-1442.0,312.0,309.0
16:36:15,-1442.0,312.0,309.0
16:36:15,-1442.0,312.0,309.0
16:36:15,-1442.0,312.0,309.0
16:36:15,-1386.0,311.0,309.0
16:36:15,-1386.0,311.0,309.0
16:36:15,-1386.0,311.0,309.0
16:36:15,-1386.0,311.0,309.0
16:36:15,-1371.0,310.0,310.0
16:36:15,-1371.0,310.0,310.0
16:36:15,-1371.0,310.0,310.0
16:36:15,-1371.0,310.0,310.0
16:36:15,-1282.0,312.0,311.0
16:36:15,-1282.0,312.0,311.0
16:36:15,-1282.0,312.0,311.0
16:36:15,-1282.0,312.0,311.0
16:36:15,-1214.0,313.0,310.0
16:36:15,-1214.0,313.0,310.0
16:36:15,-1214.0,313.0,310.0
16:36:15,-1214.0,313.0,310.0
16:36:15,-1146.0,312.0,309.0
16:36:15,-1146.0,312.0,309.0
16:36:15,-1146.0,312.0,309.0
16:36:15,-1146.0,312.0,309.0
16:36:15,-1139.0,310.0,310.0
16:36:15,-1139.0,310.0,310.0
16:36:15,-1139.0,310.0,310.0
16:36:15,-1139.0,310.0,310.0
16:36:15,-1228.0,312.0,310.0
16:36:15,-1228.0,312.0,310.0
16:36:15,-1228.0,312.0,310.0
16:36:15,-1228.0,312.0,310.0
16:36:15,-1396.0,311.0,309.0
16:36:15,-1396.0,311.0,309.0
16:36:15,-1396.0,311.0,309.0
16:36:15,-1396.0,311.0,309.0
16:36:15,-1438.0,311.0,309.0
16:36:15,-1438.0,311.0,309.0
16:36:15,-1438.0,311.0,309.0
16:36:15,-1438.0,311.0,309.0
16:36:15,-1480.0,311.0,309.0
16:36:15,-1480.0,311.0,309.0
16:36:15,-1480.0,311.0,309.0
16:36:15,-1480.0,311.0,309.0
16:36:15,-1440.0,311.0,309.0
16:36:15,-1440.0,311.0,309.0
16:36:15,-1440.0,311.0,309.0
16:36:15,-1440.0,311.0,309.0
16:36:15,-1394.0,310.0,310.0
16:36:15,-1394.0,310.0,310.0
16:36:15,-1394.0,310.0,310.0
16:36:15,-1394.0,310.0,310.0
16:36:15,-1352.0,311.0,309.0
16:36:15,-1352.0,311.0,309.0
16:36:15,-1352.0,311.0,309.0
16:36:15,-1352.0,311.0,309.0
16:36:15,-1346.0,311.0,309.0
16:36:16,-1346.0,311.0,309.0
16:36:16,-1346.0,311.0,309.0
16:36:16,-1346.0,311.0,309.0
16:36:16,-1310.0,311.0,311.0
16:36:16,-1310.0,311.0,311.0
16:36:16,-1310.0,311.0,311.0
16:36:16,-1310.0,311.0,311.0
16:36:16,-1297.0,311.0,309.0
16:36:16,-1297.0,311.0,309.0
16:36:16,-1297.0,311.0,309.0
16:36:16,-1297.0,311.0,309.0
16:36:16,-1305.0,311.0,309.0
16:36:16,-1305.0,311.0,309.0
16:36:16,-1305.0,311.0,309.0
16:36:16,-1305.0,311.0,309.0
16:36:16,-1305.0,313.0,309.0
16:36:16,-1305.0,313.0,309.0
16:36:16,-1305.0,313.0,309.0
16:36:16,-1305.0,313.0,309.0
16:36:16,-1288.0,311.0,309.0
16:36:16,-1288.0,311.0,309.0
16:36:16,-1288.0,311.0,309.0
16:36:16,-1288.0,311.0,309.0
16:36:16,-1302.0,311.0,310.0
16:36:16,-1302.0,311.0,310.0
16:36:16,-1302.0,311.0,310.0
16:36:16,-1302.0,311.0,310.0
16:36:16,-1271.0,310.0,309.0
16:36:16,-1271.0,310.0,309.0
16:36:16,-1271.0,310.0,309.0
16:36:16,-1271.0,310.0,309.0
16:36:16,-1240.0,312.0,309.0
16:36:16,-1240.0,312.0,309.0
16:36:16,-1240.0,312.0,309.0
16:36:16,-1240.0,312.0,309.0
16:36:16,-1158.0,312.0,308.0
16:36:16,-1158.0,312.0,308.0
16:36:16,-1158.0,312.0,308.0
16:36:16,-1158.0,312.0,308.0
16:36:16,-1208.0,312.0,309.0
16:36:16,-1208.0,312.0,309.0
16:36:16,-1208.0,312.0,309.0
16:36:16,-1208.0,312.0,309.0
16:36:16,-1251.0,312.0,309.0
16:36:16,-1251.0,312.0,309.0
16:36:16,-1251.0,312.0,309.0
16:36:16,-1251.0,312.0,309.0
16:36:16,-1250.0,312.0,309.0
16:36:16,-1250.0,312.0,309.0
16:36:16,-1250.0,312.0,309.0
16:36:16,-1250.0,312.0,309.0
16:36:16,-1240.0,310.0,309.0
16:36:16,-1240.0,310.0,309.0
16:36:16,-1240.0,310.0,309.0
16:36:16,-1240.0,310.0,309.0
16:36:16,-1371.0,311.0,309.0
16:36:16,-1371.0,311.0,309.0
16:36:16,-1371.0,311.0,309.0
16:36:16,-1371.0,311.0,309.0
16:36:16,89.0,311.0,308.0
16:36:16,89.0,311.0,308.0
16:36:16,89.0,311.0,308.0
16:36:16,89.0,311.0,308.0
16:36:16,-818.0,311.0,308.0
16:36:16,-818.0,311.0,308.0
16:36:16,-818.0,311.0,308.0
16:36:16,-818.0,311.0,308.0
16:36:16,-1220.0,311.0,308.0
16:36:16,-1220.0,311.0,308.0
16:36:16,-1220.0,311.0,308.0
16:36:16,-1220.0,311.0,308.0
16:36:16,-1247.0,311.0,308.0
16:36:16,-1247.0,311.0,308.0
16:36:16,-1247.0,311.0,308.0
16:36:16,-1247.0,311.0,308.0
16:36:16,-1023.0,312.0,309.0
16:36:16,-1023.0,312.0,309.0
16:36:16,-1023.0,312.0,309.0
16:36:16,-1023.0,312.0,309.0
16:36:16,-680.0,312.0,308.0
16:36:16,-680.0,312.0,308.0
16:36:16,-680.0,312.0,308.0
16:36:16,-680.0,312.0,308.0
16:36:16,-615.0,312.0,308.0
16:36:16,-615.0,312.0,308.0
16:36:16,-615.0,312.0,308.0
16:36:16,-615.0,312.0,308.0
16:36:16,-567.0,310.0,310.0
16:36:16,-567.0,310.0,310.0
16:36:16,-567.0,310.0,310.0
16:36:16,-567.0,310.0,310.0
16:36:16,-582.0,311.0,307.0
16:36:16,-582.0,311.0,307.0
16:36:16,-582.0,311.0,307.0
16:36:16,-582.0,311.0,307.0
16:36:16,-514.0,312.0,309.0
16:36:16,-514.0,312.0,309.0
16:36:16,-514.0,312.0,309.0
16:36:16,-514.0,312.0,309.0
16:36:16,-538.0,311.0,309.0
16:36:16,-538.0,311.0,309.0
16:36:16,-538.0,311.0,309.0
16:36:16,-538.0,311.0,309.0
16:36:16,-645.0,313.0,310.0
16:36:16,-645.0,313.0,310.0
16:36:16,-645.0,313.0,310.0
16:36:16,-645.0,313.0,310.0
16:36:16,-839.0,312.0,309.0
16:36:16,-839.0,312.0,309.0
16:36:16,-839.0,312.0,309.0
16:36:16,-839.0,312.0,309.0
16:36:16,-1012.0,312.0,309.0
16:36:16,-1012.0,312.0,309.0
16:36:16,-1012.0,312.0,309.0
16:36:16,-1012.0,312.0,309.0
16:36:16,-1044.0,311.0,311.0
16:36:16,-1044.0,311.0,311.0
16:36:16,-1044.0,311.0,311.0
16:36:16,-1044.0,311.0,311.0
16:36:16,-1084.0,312.0,309.0
16:36:16,-1084.0,312.0,309.0
16:36:16,-1084.0,312.0,309.0
16:36:16,-1084.0,312.0,309.0
16:36:16,-1097.0,311.0,310.0
16:36:16,-1097.0,311.0,310.0
16:36:16,-1097.0,311.0,310.0
16:36:16,-1097.0,311.0,310.0
16:36:16,-1115.0,311.0,311.0
16:36:16,-1115.0,311.0,311.0
16:36:16,-1115.0,311.0,311.0
16:36:16,-1115.0,311.0,311.0
16:36:16,-1146.0,312.0,312.0
16:36:16,-1146.0,312.0,312.0
16:36:16,-1146.0,312.0,312.0
16:36:16,-1146.0,312.0,312.0
16:36:16,-1188.0,312.0,310.0
16:36:16,-1188.0,312.0,310.0
16:36:16,-1188.0,312.0,310.0
16:36:16,-1188.0,312.0,310.0
16:36:16,-1159.0,311.0,311.0
16:36:16,-1159.0,311.0,311.0
16:36:16,-1159.0,311.0,311.0
16:36:16,-1159.0,311.0,311.0
16:36:16,-1196.0,312.0,310.0
16:36:16,-1196.0,312.0,310.0
16:36:16,-1196.0,312.0,310.0
16:36:16,-1196.0,312.0,310.0
16:36:16,-1194.0,310.0,309.0
16:36:16,-1194.0,310.0,309.0
16:36:16,-1194.0,310.0,309.0
16:36:16,-1194.0,310.0,309.0
16:36:16,-1221.0,310.0,310.0
16:36:16,-1221.0,310.0,310.0
16:36:16,-1221.0,310.0,310.0
16:36:16,-1221.0,310.0,310.0
16:36:16,-1216.0,311.0,311.0
16:36:16,-1216.0,311.0,311.0
16:36:16,-1216.0,311.0,311.0
16:36:16,-1216.0,311.0,311.0
16:36:16,-1234.0,312.0,309.0
16:36:16,-1234.0,312.0,309.0
16:36:16,-1234.0,312.0,309.0
16:36:16,-1234.0,312.0,309.0
16:36:16,-1350.0,311.0,310.0
16:36:16,-1350.0,311.0,310.0
16:36:16,-1350.0,311.0,310.0
16:36:16,-1350.0,311.0,310.0
16:36:16,-1350.0,311.0,311.0
16:36:16,-1350.0,311.0,311.0
16:36:16,-1350.0,311.0,311.0
16:36:16,-1350.0,311.0,311.0
16:36:16,-1350.0,311.0,310.0
16:36:16,-1350.0,311.0,310.0
16:36:16,-1350.0,311.0,310.0
16:36:16,-1350.0,311.0,310.0
16:36:16,-1421.0,311.0,310.0
16:36:16,-1421.0,311.0,310.0
16:36:16,-1421.0,311.0,310.0
16:36:16,-1421.0,311.0,310.0
16:36:16,-1251.0,314.0,309.0
16:36:16,-1251.0,314.0,309.0
16:36:16,-1251.0,314.0,309.0
16:36:16,-1251.0,314.0,309.0
16:36:16,-270.0,310.0,311.0
16:36:16,-270.0,310.0,311.0
16:36:16,-270.0,310.0,311.0
16:36:16,-270.0,310.0,311.0
16:36:16,-1337.0,311.0,310.0
16:36:16,-1337.0,311.0,310.0
16:36:16,-1337.0,311.0,310.0
16:36:16,-1337.0,311.0,310.0
16:36:16,-1455.0,312.0,311.0
16:36:16,-1455.0,312.0,311.0
16:36:16,-1455.0,312.0,311.0
16:36:16,-1455.0,312.0,311.0
16:36:16,-1478.0,314.0,309.0
16:36:16,-1478.0,314.0,309.0
16:36:16,-1478.0,314.0,309.0
16:36:16,-1478.0,314.0,309.0
16:36:16,-1490.0,311.0,310.0
16:36:16,-1490.0,311.0,310.0
16:36:17,-1490.0,311.0,310.0
16:36:17,-1490.0,311.0,310.0
16:36:17,-1444.0,312.0,309.0
16:36:17,-1444.0,312.0,309.0
16:36:17,-1444.0,312.0,309.0
16:36:17,-1444.0,312.0,309.0
16:36:17,-1444.0,311.0,309.0
16:36:17,-1444.0,311.0,309.0
16:36:17,-1444.0,311.0,309.0
16:36:17,-1444.0,311.0,309.0
16:36:17,-1367.0,312.0,310.0
16:36:17,-1367.0,312.0,310.0
16:36:17,-1367.0,312.0,310.0
16:36:17,-1367.0,312.0,310.0
16:36:17,-1298.0,312.0,310.0
16:36:17,-1298.0,312.0,310.0
16:36:17,-1298.0,312.0,310.0
16:36:17,-1298.0,312.0,310.0
16:36:17,-1243.0,312.0,310.0
16:36:17,-1243.0,312.0,310.0
16:36:17,-1243.0,312.0,310.0
16:36:17,-1243.0,312.0,310.0
16:36:17,-1253.0,311.0,309.0
16:36:17,-1253.0,311.0,309.0
16:36:17,-1253.0,311.0,309.0
16:36:17,-1253.0,311.0,309.0
16:36:17,-1377.0,312.0,310.0
16:36:17,-1377.0,312.0,310.0
16:36:17,-1377.0,312.0,310.0
16:36:17,-1377.0,312.0,310.0
16:36:17,-1530.0,311.0,310.0
16:36:17,-1530.0,311.0,310.0
16:36:17,-1530.0,311.0,310.0
16:36:17,-1530.0,311.0,310.0
16:36:17,-1599.0,311.0,310.0
16:36:17,-1599.0,311.0,310.0
16:36:17,-1599.0,311.0,310.0
16:36:17,-1599.0,311.0,310.0
16:36:17,-1599.0,312.0,310.0
16:36:17,-1599.0,312.0,310.0
16:36:17,-1599.0,312.0,310.0
16:36:17,-1599.0,312.0,310.0
16:36:17,-1585.0,313.0,309.0
16:36:17,-1585.0,313.0,309.0
16:36:17,-1585.0,313.0,309.0
16:36:17,-1585.0,313.0,309.0
16:36:17,-1624.0,311.0,310.0
16:36:17,-1624.0,311.0,310.0
16:36:17,-1624.0,311.0,310.0
16:36:17,-1624.0,311.0,310.0
16:36:17,-1619.0,311.0,311.0
16:36:17,-1619.0,311.0,311.0
16:36:17,-1619.0,311.0,311.0
16:36:17,-1619.0,311.0,311.0
16:36:17,-1598.0,311.0,309.0
16:36:17,-1598.0,311.0,309.0
16:36:17,-1598.0,311.0,309.0
16:36:17,-1598.0,311.0,309.0
16:36:17,-1596.0,311.0,309.0
16:36:17,-1596.0,311.0,309.0
16:36:17,-1596.0,311.0,309.0
16:36:17,-1596.0,311.0,309.0
16:36:17,-1588.0,311.0,309.0
16:36:17,-1588.0,311.0,309.0
16:36:17,-1588.0,311.0,309.0
16:36:17,-1588.0,311.0,309.0
16:36:17,-1582.0,312.0,309.0
16:36:17,-1582.0,312.0,309.0
16:36:17,-1582.0,312.0,309.0
16:36:17,-1582.0,312.0,309.0
16:36:17,-1547.0,311.0,309.0
16:36:17,-1547.0,311.0,309.0
16:36:17,-1547.0,311.0,309.0
16:36:17,-1547.0,311.0,309.0
16:36:17,-1572.0,311.0,308.0
16:36:17,-1572.0,311.0,308.0
16:36:17,-1572.0,311.0,308.0
16:36:17,-1572.0,311.0,308.0
16:36:17,-1549.0,311.0,308.0
16:36:17,-1549.0,311.0,308.0
16:36:17,-1549.0,311.0,308.0
16:36:17,-1549.0,311.0,308.0
16:36:17,-1638.0,313.0,309.0
16:36:17,-1638.0,313.0,309.0
16:36:17,-1638.0,313.0,309.0
16:36:17,-1638.0,313.0,309.0
16:36:17,-1616.0,312.0,310.0
16:36:17,-1616.0,312.0,310.0
16:36:17,-1616.0,312.0,310.0
16:36:17,-1616.0,312.0,310.0
16:36:17,-1641.0,310.0,312.0
16:36:17,-1641.0,310.0,312.0
16:36:17,-1641.0,310.0,312.0
16:36:17,-1641.0,310.0,312.0
16:36:17,-1682.0,311.0,309.0
16:36:17,-1682.0,311.0,309.0
16:36:17,-1682.0,311.0,309.0
16:36:17,-1682.0,311.0,309.0
16:36:17,-1219.0,311.0,309.0
16:36:17,-1219.0,311.0,309.0
16:36:17,-1219.0,311.0,309.0
16:36:17,-1219.0,311.0,309.0
16:36:17,-525.0,311.0,309.0
16:36:17,-525.0,311.0,309.0
16:36:17,-525.0,311.0,309.0
16:36:17,-525.0,311.0,309.0
16:36:17,-1531.0,311.0,310.0
16:36:17,-1531.0,311.0,310.0
16:36:17,-1531.0,311.0,310.0
16:36:17,-1531.0,311.0,310.0
16:36:17,-1653.0,311.0,309.0
16:36:17,-1653.0,311.0,309.0
16:36:17,-1653.0,311.0,309.0
16:36:17,-1653.0,311.0,309.0
16:36:17,-1652.0,311.0,310.0
16:36:17,-1652.0,311.0,310.0
16:36:17,-1652.0,311.0,310.0
16:36:17,-1652.0,311.0,310.0
16:36:17,-1641.0,312.0,309.0
16:36:17,-1641.0,312.0,309.0
16:36:17,-1641.0,312.0,309.0
16:36:17,-1641.0,312.0,309.0
16:36:17,-1647.0,313.0,310.0
16:36:17,-1647.0,313.0,310.0
16:36:17,-1647.0,313.0,310.0
16:36:17,-1647.0,313.0,310.0
16:36:17,-1598.0,311.0,309.0
16:36:17,-1598.0,311.0,309.0
16:36:17,-1598.0,311.0,309.0
16:36:17,-1598.0,311.0,309.0
16:36:17,-1540.0,312.0,309.0
16:36:17,-1540.0,312.0,309.0
16:36:17,-1540.0,312.0,309.0
16:36:17,-1540.0,312.0,309.0
16:36:17,-1430.0,312.0,309.0
16:36:17,-1430.0,312.0,309.0
16:36:17,-1430.0,312.0,309.0
16:36:17,-1430.0,312.0,309.0
16:36:17,-1372.0,312.0,309.0
16:36:17,-1372.0,312.0,309.0
16:36:17,-1372.0,312.0,309.0
16:36:17,-1372.0,312.0,309.0
16:36:17,-1383.0,311.0,310.0
16:36:17,-1383.0,311.0,310.0
16:36:17,-1383.0,311.0,310.0
16:36:17,-1383.0,311.0,310.0
16:36:17,-1511.0,311.0,310.0
16:36:17,-1511.0,311.0,310.0
16:36:17,-1511.0,311.0,310.0
16:36:17,-1511.0,311.0,310.0
16:36:17,-1674.0,311.0,310.0
16:36:17,-1674.0,311.0,310.0
16:36:17,-1674.0,311.0,310.0
16:36:17,-1674.0,311.0,310.0
16:36:17,-1746.0,311.0,309.0
16:36:17,-1746.0,311.0,309.0
16:36:17,-1746.0,311.0,309.0
16:36:17,-1746.0,311.0,309.0
16:36:17,-1743.0,311.0,309.0
16:36:17,-1743.0,311.0,309.0
16:36:17,-1743.0,311.0,309.0
16:36:17,-1743.0,311.0,309.0
16:36:17,-1720.0,311.0,309.0
16:36:17,-1720.0,311.0,309.0
16:36:17,-1720.0,311.0,309.0
16:36:17,-1720.0,311.0,309.0
16:36:17,-1709.0,310.0,310.0
16:36:17,-1709.0,310.0,310.0
16:36:17,-1709.0,310.0,310.0
16:36:17,-1709.0,310.0,310.0
16:36:17,-1712.0,311.0,309.0
16:36:17,-1712.0,311.0,309.0
16:36:17,-1712.0,311.0,309.0
16:36:17,-1712.0,311.0,309.0
16:36:17,-1692.0,312.0,309.0
16:36:17,-1692.0,312.0,309.0
16:36:17,-1692.0,312.0,309.0
16:36:17,-1692.0,312.0,309.0
16:36:17,-1684.0,311.0,311.0
16:36:17,-1684.0,311.0,311.0
16:36:17,-1684.0,311.0,311.0
16:36:17,-1684.0,311.0,311.0
16:36:17,-1715.0,310.0,309.0
16:36:17,-1715.0,310.0,309.0
16:36:17,-1715.0,310.0,309.0
16:36:17,-1715.0,310.0,309.0
16:36:17,-1696.0,312.0,308.0
16:36:17,-1696.0,312.0,308.0
16:36:17,-1696.0,312.0,308.0
16:36:17,-1696.0,312.0,308.0
16:36:17,-1676.0,311.0,309.0
16:36:17,-1676.0,311.0,309.0
16:36:17,-1676.0,311.0,309.0
16:36:17,-1676.0,311.0,309.0
16:36:17,-1680.0,310.0,310.0
16:36:17,-1680.0,310.0,310.0
16:36:17,-1680.0,310.0,310.0
16:36:17,-1680.0,310.0,310.0
16:36:17,-1648.0,311.0,309.0
16:36:17,-1648.0,311.0,309.0
16:36:17,-1648.0,311.0,309.0
16:36:18,-1648.0,311.0,309.0
16:36:18,-1631.0,310.0,309.0
16:36:18,-1631.0,310.0,309.0
16:36:18,-1631.0,310.0,309.0
16:36:18,-1631.0,310.0,309.0
16:36:18,-1568.0,311.0,310.0
16:36:18,-1568.0,311.0,310.0
16:36:18,-1568.0,311.0,310.0
16:36:18,-1568.0,311.0,310.0
16:36:18,-1669.0,311.0,309.0
16:36:18,-1669.0,311.0,309.0
16:36:18,-1669.0,311.0,309.0
16:36:18,-1669.0,311.0,309.0
16:36:18,-1651.0,311.0,310.0
16:36:18,-1651.0,311.0,310.0
16:36:18,-1651.0,311.0,310.0
16:36:18,-1651.0,311.0,310.0
16:36:18,-1681.0,313.0,309.0
16:36:18,-1681.0,313.0,309.0
16:36:18,-1681.0,313.0,309.0
16:36:18,-1681.0,313.0,309.0
16:36:18,-1667.0,314.0,311.0
16:36:18,-1667.0,314.0,311.0
16:36:18,-1667.0,314.0,311.0
16:36:18,-1667.0,314.0,311.0
16:36:18,-1697.0,313.0,309.0
16:36:18,-1697.0,313.0,309.0
16:36:18,-1697.0,313.0,309.0
16:36:18,-1697.0,313.0,309.0
16:36:18,-383.0,312.0,310.0
16:36:18,-383.0,312.0,310.0
16:36:18,-383.0,312.0,310.0
16:36:18,-383.0,312.0,310.0
16:36:18,-1368.0,312.0,310.0
16:36:18,-1368.0,312.0,310.0
16:36:18,-1368.0,312.0,310.0
16:36:18,-1368.0,312.0,310.0
16:36:18,-1654.0,312.0,309.0
16:36:18,-1654.0,312.0,309.0
16:36:18,-1654.0,312.0,309.0
16:36:18,-1654.0,312.0,309.0
16:36:18,-1691.0,311.0,310.0
16:36:18,-1691.0,311.0,310.0
16:36:18,-1691.0,311.0,310.0
16:36:18,-1691.0,311.0,310.0
16:36:18,-1641.0,311.0,309.0
16:36:18,-1641.0,311.0,309.0
16:36:18,-1641.0,311.0,309.0
16:36:18,-1641.0,311.0,309.0
16:36:18,-1667.0,312.0,309.0
16:36:18,-1667.0,312.0,309.0
16:36:18,-1667.0,312.0,309.0
16:36:18,-1667.0,312.0,309.0
16:36:18,-1598.0,312.0,310.0
16:36:18,-1598.0,312.0,310.0
16:36:18,-1598.0,312.0,310.0
16:36:18,-1598.0,312.0,310.0
16:36:18,-1537.0,311.0,310.0
16:36:18,-1537.0,311.0,310.0
16:36:18,-1537.0,311.0,310.0
16:36:18,-1537.0,311.0,310.0
16:36:18,-1477.0,311.0,310.0
16:36:18,-1477.0,311.0,310.0
16:36:18,-1477.0,311.0,310.0
16:36:18,-1477.0,311.0,310.0
16:36:18,-1395.0,311.0,309.0
16:36:18,-1395.0,311.0,309.0
16:36:18,-1395.0,311.0,309.0
16:36:18,-1395.0,311.0,309.0
16:36:18,-1365.0,310.0,309.0
16:36:18,-1365.0,310.0,309.0
16:36:18,-1365.0,310.0,309.0
16:36:18,-1365.0,310.0,309.0
16:36:18,-1408.0,311.0,308.0
16:36:18,-1408.0,311.0,308.0
16:36:18,-1408.0,311.0,308.0
16:36:18,-1408.0,311.0,308.0
16:36:18,-1590.0,311.0,308.0
16:36:18,-1590.0,311.0,308.0
16:36:18,-1590.0,311.0,308.0
16:36:18,-1590.0,311.0,308.0
16:36:18,-1733.0,311.0,308.0
16:36:18,-1733.0,311.0,308.0
16:36:18,-1733.0,311.0,308.0
16:36:18,-1733.0,311.0,308.0
16:36:18,-1720.0,312.0,308.0
16:36:18,-1720.0,312.0,308.0
16:36:18,-1720.0,312.0,308.0
16:36:18,-1720.0,312.0,308.0
16:36:18,-1724.0,311.0,309.0
16:36:18,-1724.0,311.0,309.0
16:36:18,-1724.0,311.0,309.0
16:36:18,-1724.0,311.0,309.0
16:36:18,-1687.0,311.0,309.0
16:36:18,-1687.0,311.0,309.0
16:36:18,-1687.0,311.0,309.0
16:36:18,-1687.0,311.0,309.0
16:36:18,-1699.0,312.0,308.0
16:36:18,-1699.0,312.0,308.0
16:36:18,-1699.0,312.0,308.0
16:36:18,-1699.0,312.0,308.0
16:36:18,-1671.0,311.0,310.0
16:36:18,-1671.0,311.0,310.0
16:36:18,-1671.0,311.0,310.0
16:36:18,-1671.0,311.0,310.0
16:36:18,-1657.0,310.0,310.0
16:36:18,-1657.0,310.0,310.0
16:36:18,-1657.0,310.0,310.0
16:36:18,-1657.0,310.0,310.0
16:36:18,-1671.0,312.0,310.0
16:36:18,-1671.0,312.0,310.0
16:36:18,-1671.0,312.0,310.0
16:36:18,-1671.0,312.0,310.0
16:36:18,-1665.0,312.0,309.0
16:36:18,-1665.0,312.0,309.0
16:36:18,-1665.0,312.0,309.0
16:36:18,-1665.0,312.0,309.0
16:36:18,-1691.0,311.0,311.0
16:36:18,-1691.0,311.0,311.0
16:36:18,-1691.0,311.0,311.0
16:36:18,-1691.0,311.0,311.0
16:36:18,-1671.0,311.0,310.0
16:36:18,-1671.0,311.0,310.0
16:36:18,-1671.0,311.0,310.0
16:36:18,-1671.0,311.0,310.0
16:36:18,-1674.0,310.0,309.0
16:36:18,-1674.0,310.0,309.0
16:36:18,-1674.0,310.0,309.0
16:36:18,-1674.0,310.0,309.0
16:36:18,-1660.0,312.0,308.0
16:36:18,-1660.0,312.0,308.0
16:36:18,-1660.0,312.0,308.0
16:36:18,-1660.0,312.0,308.0
16:36:18,-1645.0,311.0,309.0
16:36:18,-1645.0,311.0,309.0
16:36:18,-1645.0,311.0,309.0
16:36:18,-1645.0,311.0,309.0
16:36:18,-1638.0,311.0,310.0
16:36:18,-1638.0,311.0,310.0
16:36:18,-1638.0,311.0,310.0
16:36:18,-1638.0,311.0,310.0
16:36:18,-1584.0,312.0,308.0
16:36:18,-1584.0,312.0,308.0
16:36:18,-1584.0,312.0,308.0
16:36:18,-1584.0,312.0,308.0
16:36:18,-1675.0,312.0,310.0
16:36:18,-1675.0,312.0,310.0
16:36:18,-1675.0,312.0,310.0
16:36:18,-1675.0,312.0,310.0
16:36:18,-1696.0,310.0,309.0
16:36:18,-1696.0,310.0,309.0
16:36:18,-1696.0,310.0,309.0
16:36:18,-1696.0,310.0,309.0
16:36:18,-1666.0,311.0,309.0
16:36:18,-1666.0,311.0,309.0
16:36:18,-1666.0,311.0,309.0
16:36:18,-1666.0,311.0,309.0
16:36:18,-1723.0,311.0,310.0
16:36:18,-1723.0,311.0,310.0
16:36:18,-1723.0,311.0,310.0
16:36:18,-1723.0,311.0,310.0
16:36:18,-1751.0,311.0,310.0
16:36:18,-1751.0,311.0,310.0
16:36:18,-1751.0,311.0,310.0
16:36:18,-1751.0,311.0,310.0
16:36:18,-404.0,311.0,310.0
16:36:18,-404.0,311.0,310.0
16:36:18,-404.0,311.0,310.0
16:36:18,-404.0,311.0,310.0
16:36:18,-1410.0,312.0,311.0
16:36:18,-1410.0,312.0,311.0
16:36:18,-1410.0,312.0,311.0
16:36:18,-1410.0,312.0,311.0
16:36:18,-1639.0,311.0,310.0
16:36:18,-1639.0,311.0,310.0
16:36:18,-1639.0,311.0,310.0
16:36:18,-1639.0,311.0,310.0
16:36:18,-1712.0,311.0,309.0
16:36:18,-1712.0,311.0,309.0
16:36:18,-1712.0,311.0,309.0
16:36:18,-1712.0,311.0,309.0
16:36:18,-1672.0,312.0,310.0
16:36:18,-1672.0,312.0,310.0
16:36:18,-1672.0,312.0,310.0
16:36:18,-1672.0,312.0,310.0
16:36:18,-1638.0,312.0,310.0
16:36:18,-1638.0,312.0,310.0
16:36:18,-1638.0,312.0,310.0
16:36:18,-1638.0,312.0,310.0
16:36:18,-1592.0,311.0,308.0
16:36:18,-1592.0,311.0,308.0
16:36:18,-1592.0,311.0,308.0
16:36:18,-1592.0,311.0,308.0
16:36:18,-1560.0,311.0,311.0
16:36:18,-1560.0,311.0,311.0
16:36:18,-1560.0,311.0,311.0
16:36:18,-1560.0,311.0,311.0
16:36:18,-1482.0,313.0,309.0
16:36:18,-1482.0,313.0,309.0
16:36:18,-1482.0,313.0,309.0
16:36:18,-1482.0,313.0,309.0
16:36:19,-1370.0,313.0,309.0
16:36:19,-1370.0,313.0,309.0
16:36:19,-1370.0,313.0,309.0
16:36:19,-1370.0,313.0,309.0
16:36:19,-1356.0,312.0,310.0
16:36:19,-1356.0,312.0,310.0
16:36:19,-1356.0,312.0,310.0
16:36:19,-1356.0,312.0,310.0
16:36:19,-1426.0,312.0,309.0
16:36:19,-1426.0,312.0,309.0
16:36:19,-1426.0,312.0,309.0
16:36:19,-1426.0,312.0,309.0
16:36:19,-1611.0,313.0,309.0
16:36:19,-1611.0,313.0,309.0
16:36:19,-1611.0,313.0,309.0
16:36:19,-1611.0,313.0,309.0
16:36:19,-1702.0,312.0,310.0
16:36:19,-1702.0,312.0,310.0
16:36:19,-1702.0,312.0,310.0
16:36:19,-1702.0,312.0,310.0
16:36:19,-1710.0,312.0,310.0
16:36:19,-1710.0,312.0,310.0
16:36:19,-1710.0,312.0,310.0
16:36:19,-1710.0,312.0,310.0
16:36:19,-1720.0,311.0,310.0
16:36:19,-1720.0,311.0,310.0
16:36:19,-1720.0,311.0,310.0
16:36:19,-1720.0,311.0,310.0
16:36:19,-1679.0,311.0,309.0
16:36:19,-1679.0,311.0,309.0
16:36:19,-1679.0,311.0,309.0
16:36:19,-1679.0,311.0,309.0
16:36:19,-1669.0,312.0,309.0
16:36:19,-1669.0,312.0,309.0
16:36:19,-1669.0,312.0,309.0
16:36:19,-1669.0,312.0,309.0
16:36:19,-1690.0,312.0,309.0
16:36:19,-1690.0,312.0,309.0
16:36:19,-1690.0,312.0,309.0
16:36:19,-1690.0,312.0,309.0
16:36:19,-1646.0,313.0,309.0
16:36:19,-1646.0,313.0,309.0
16:36:19,-1646.0,313.0,309.0
16:36:19,-1646.0,313.0,309.0
16:36:19,-1642.0,311.0,310.0
16:36:19,-1642.0,311.0,310.0
16:36:19,-1642.0,311.0,310.0
16:36:19,-1642.0,311.0,310.0
16:36:19,-1620.0,311.0,309.0
16:36:19,-1620.0,311.0,309.0
16:36:19,-1620.0,311.0,309.0
16:36:19,-1620.0,311.0,309.0
16:36:19,-1616.0,311.0,310.0
16:36:19,-1616.0,311.0,310.0
16:36:19,-1616.0,311.0,310.0
16:36:19,-1616.0,311.0,310.0
16:36:19,-1585.0,311.0,310.0
16:36:19,-1585.0,311.0,310.0
16:36:19,-1585.0,311.0,310.0
16:36:19,-1585.0,311.0,310.0
16:36:19,-1564.0,312.0,309.0
16:36:19,-1564.0,312.0,309.0
16:36:19,-1564.0,312.0,309.0
16:36:19,-1564.0,312.0,309.0
16:36:19,-1528.0,310.0,309.0
16:36:19,-1528.0,310.0,309.0
16:36:19,-1528.0,310.0,309.0
16:36:19,-1528.0,310.0,309.0
16:36:19,-1499.0,311.0,309.0
16:36:19,-1499.0,311.0,309.0
16:36:19,-1499.0,311.0,309.0
16:36:19,-1499.0,311.0,309.0
16:36:19,-1533.0,311.0,309.0
16:36:19,-1533.0,311.0,309.0
16:36:19,-1533.0,311.0,309.0
16:36:19,-1533.0,311.0,309.0
16:36:19,-1570.0,311.0,309.0
16:36:19,-1570.0,311.0,309.0
16:36:19,-1570.0,311.0,309.0
16:36:19,-1570.0,311.0,309.0
16:36:19,-1569.0,311.0,309.0
16:36:19,-1569.0,311.0,309.0
16:36:19,-1569.0,311.0,309.0
16:36:19,-1569.0,311.0,309.0
16:36:19,-1572.0,311.0,309.0
16:36:19,-1572.0,311.0,309.0
16:36:19,-1572.0,311.0,309.0
16:36:19,-1572.0,311.0,309.0
16:36:19,-1666.0,310.0,309.0
16:36:19,-1666.0,310.0,309.0
16:36:19,-1666.0,310.0,309.0
16:36:19,-1666.0,310.0,309.0
16:36:19,-782.0,310.0,308.0
16:36:19,-782.0,310.0,308.0
16:36:19,-782.0,310.0,308.0
16:36:19,-782.0,310.0,308.0
16:36:19,-625.0,311.0,310.0
16:36:19,-625.0,311.0,310.0
16:36:19,-625.0,311.0,310.0
16:36:19,-625.0,311.0,310.0
16:36:19,-1479.0,312.0,309.0
16:36:19,-1479.0,312.0,309.0
16:36:19,-1479.0,312.0,309.0
16:36:19,-1479.0,312.0,309.0
16:36:19,-1554.0,311.0,309.0
16:36:19,-1554.0,311.0,309.0
16:36:19,-1554.0,311.0,309.0
16:36:19,-1554.0,311.0,309.0
16:36:19,-1563.0,311.0,309.0
16:36:19,-1563.0,311.0,309.0
16:36:19,-1563.0,311.0,309.0
16:36:19,-1563.0,311.0,309.0
16:36:19,-1538.0,311.0,308.0
16:36:19,-1538.0,311.0,308.0
16:36:19,-1538.0,311.0,308.0
16:36:19,-1538.0,311.0,308.0
16:36:19,-1503.0,312.0,309.0
16:36:19,-1503.0,312.0,309.0
16:36:19,-1503.0,312.0,309.0
16:36:19,-1503.0,312.0,309.0
16:36:19,-1425.0,312.0,310.0
16:36:19,-1425.0,312.0,310.0
16:36:19,-1425.0,312.0,310.0
16:36:19,-1425.0,312.0,310.0
16:36:19,-1379.0,310.0,309.0
16:36:19,-1379.0,310.0,309.0
16:36:19,-1379.0,310.0,309.0
16:36:19,-1379.0,310.0,309.0
16:36:19,-1292.0,311.0,311.0
16:36:19,-1292.0,311.0,311.0
16:36:19,-1292.0,311.0,311.0
16:36:19,-1292.0,311.0,311.0
16:36:19,-1228.0,312.0,310.0
16:36:19,-1228.0,312.0,310.0
16:36:19,-1228.0,312.0,310.0
16:36:19,-1228.0,312.0,310.0
16:36:19,-1230.0,312.0,310.0
16:36:19,-1230.0,312.0,310.0
16:36:19,-1230.0,312.0,310.0
16:36:19,-1230.0,312.0,310.0
16:36:19,-1369.0,311.0,310.0
16:36:19,-1369.0,311.0,310.0
16:36:19,-1369.0,311.0,310.0
16:36:19,-1369.0,311.0,310.0
16:36:19,-1509.0,311.0,311.0
16:36:19,-1509.0,311.0,311.0
16:36:19,-1509.0,311.0,311.0
16:36:19,-1509.0,311.0,311.0
16:36:19,-1542.0,311.0,309.0
16:36:19,-1542.0,311.0,309.0
16:36:19,-1542.0,311.0,309.0
16:36:19,-1542.0,311.0,309.0
16:36:19,-1546.0,311.0,310.0
16:36:19,-1546.0,311.0,310.0
16:36:19,-1546.0,311.0,310.0
16:36:19,-1546.0,311.0,310.0
16:36:19,-1575.0,311.0,309.0
16:36:19,-1575.0,311.0,309.0
16:36:19,-1575.0,311.0,309.0
16:36:19,-1575.0,311.0,309.0
16:36:19,-1549.0,311.0,309.0
16:36:19,-1549.0,311.0,309.0
16:36:19,-1549.0,311.0,309.0
16:36:19,-1549.0,311.0,309.0
16:36:19,-1503.0,312.0,309.0
16:36:19,-1503.0,312.0,309.0
16:36:19,-1503.0,312.0,309.0
16:36:19,-1503.0,312.0,309.0
16:36:19,-1544.0,312.0,309.0
16:36:19,-1544.0,312.0,309.0
16:36:19,-1544.0,312.0,309.0
16:36:19,-1544.0,312.0,309.0
16:36:19,-1484.0,312.0,309.0
16:36:19,-1484.0,312.0,309.0
16:36:19,-1484.0,312.0,309.0
16:36:19,-1484.0,312.0,309.0
16:36:19,-1489.0,310.0,311.0
16:36:19,-1489.0,310.0,311.0
16:36:19,-1489.0,310.0,311.0
16:36:19,-1489.0,310.0,311.0
16:36:19,-1483.0,313.0,309.0
16:36:19,-1483.0,313.0,309.0
16:36:19,-1483.0,313.0,309.0
16:36:19,-1483.0,313.0,309.0
16:36:19,-1483.0,311.0,310.0
16:36:19,-1483.0,311.0,310.0
16:36:19,-1483.0,311.0,310.0
16:36:19,-1483.0,311.0,310.0
16:36:19,-1508.0,311.0,310.0
16:36:19,-1508.0,311.0,310.0
16:36:19,-1508.0,311.0,310.0
16:36:19,-1508.0,311.0,310.0
16:36:19,-1435.0,312.0,309.0
16:36:19,-1435.0,312.0,309.0
16:36:19,-1435.0,312.0,309.0
16:36:19,-1435.0,312.0,309.0
16:36:19,-1441.0,311.0,309.0
16:36:19,-1441.0,311.0,309.0
16:36:19,-1441.0,311.0,309.0
16:36:19,-1441.0,311.0,309.0
16:36:19,-1406.0,310.0,309.0
16:36:20,-1406.0,310.0,309.0
16:36:20,-1406.0,310.0,309.0
16:36:20,-1406.0,310.0,309.0
16:36:20,-1383.0,312.0,309.0
16:36:20,-1383.0,312.0,309.0
16:36:20,-1383.0,312.0,309.0
16:36:20,-1383.0,312.0,309.0
16:36:20,-1484.0,311.0,310.0
16:36:20,-1484.0,311.0,310.0
16:36:20,-1484.0,311.0,310.0
16:36:20,-1484.0,311.0,310.0
16:36:20,-1468.0,312.0,310.0
16:36:20,-1468.0,312.0,310.0
16:36:20,-1468.0,312.0,310.0
16:36:20,-1468.0,312.0,310.0
16:36:20,-1454.0,312.0,310.0
16:36:20,-1454.0,312.0,310.0
16:36:20,-1454.0,312.0,310.0
16:36:20,-1454.0,312.0,310.0
16:36:20,-1496.0,310.0,310.0
16:36:20,-1496.0,310.0,310.0
16:36:20,-1496.0,310.0,310.0
16:36:20,-1496.0,310.0,310.0
16:36:20,-1228.0,312.0,309.0
16:36:20,-1228.0,312.0,309.0
16:36:20,-1228.0,312.0,309.0
16:36:20,-1228.0,312.0,309.0
16:36:20,-287.0,312.0,309.0
16:36:20,-287.0,312.0,309.0
16:36:20,-287.0,312.0,309.0
16:36:20,-287.0,312.0,309.0
16:36:20,-1282.0,312.0,308.0
16:36:20,-1282.0,312.0,308.0
16:36:20,-1282.0,312.0,308.0
16:36:20,-1282.0,312.0,308.0
16:36:20,-1468.0,311.0,310.0
16:36:20,-1468.0,311.0,310.0
16:36:20,-1468.0,311.0,310.0
16:36:20,-1468.0,311.0,310.0
16:36:20,-1481.0,310.0,310.0
16:36:20,-1481.0,310.0,310.0
16:36:20,-1481.0,310.0,310.0
16:36:20,-1481.0,310.0,310.0
16:36:20,-1455.0,312.0,309.0
16:36:20,-1455.0,312.0,309.0
16:36:20,-1455.0,312.0,309.0
16:36:20,-1455.0,312.0,309.0
16:36:20,-1407.0,311.0,309.0
16:36:20,-1407.0,311.0,309.0
16:36:20,-1407.0,311.0,309.0
16:36:20,-1407.0,311.0,309.0
16:36:20,-1366.0,311.0,309.0
16:36:20,-1366.0,311.0,309.0
16:36:20,-1366.0,311.0,309.0
16:36:20,-1366.0,311.0,309.0
16:36:20,-1328.0,311.0,309.0
16:36:20,-1328.0,311.0,309.0
16:36:20,-1328.0,311.0,309.0
16:36:20,-1328.0,311.0,309.0
16:36:20,-1243.0,312.0,310.0
16:36:20,-1243.0,312.0,310.0
16:36:20,-1243.0,312.0,310.0
16:36:20,-1243.0,312.0,310.0
16:36:20,-1143.0,313.0,309.0
16:36:20,-1143.0,313.0,309.0
16:36:20,-1143.0,313.0,309.0
16:36:20,-1143.0,313.0,309.0
16:36:20,-1112.0,313.0,310.0
16:36:20,-1112.0,313.0,310.0
16:36:20,-1112.0,313.0,310.0
16:36:20,-1112.0,313.0,310.0
16:36:20,-1228.0,311.0,310.0
16:36:20,-1228.0,311.0,310.0
16:36:20,-1228.0,311.0,310.0
16:36:20,-1228.0,311.0,310.0
16:36:20,-1379.0,312.0,310.0
16:36:20,-1379.0,312.0,310.0
16:36:20,-1379.0,312.0,310.0
16:36:20,-1379.0,312.0,310.0
16:36:20,-1465.0,311.0,310.0
16:36:20,-1465.0,311.0,310.0
16:36:20,-1465.0,311.0,310.0
16:36:20,-1465.0,311.0,310.0
16:36:20,-1467.0,312.0,311.0
16:36:20,-1467.0,312.0,311.0
16:36:20,-1467.0,312.0,311.0
16:36:20,-1467.0,312.0,311.0
16:36:20,-1462.0,312.0,309.0
16:36:20,-1462.0,312.0,309.0
16:36:20,-1462.0,312.0,309.0
16:36:20,-1462.0,312.0,309.0
16:36:20,-1451.0,311.0,311.0
16:36:20,-1451.0,311.0,311.0
16:36:20,-1451.0,311.0,311.0
16:36:20,-1451.0,311.0,311.0
16:36:20,-1436.0,311.0,310.0
16:36:20,-1436.0,311.0,310.0
16:36:20,-1436.0,311.0,310.0
16:36:20,-1436.0,311.0,310.0
16:36:20,-1416.0,311.0,308.0
16:36:20,-1416.0,311.0,308.0
16:36:20,-1416.0,311.0,308.0
16:36:20,-1416.0,311.0,308.0
16:36:20,-1408.0,313.0,309.0
16:36:20,-1408.0,313.0,309.0
16:36:20,-1408.0,313.0,309.0
16:36:20,-1408.0,313.0,309.0
16:36:20,-1394.0,311.0,310.0
16:36:20,-1394.0,311.0,310.0
16:36:20,-1394.0,311.0,310.0
16:36:20,-1394.0,311.0,310.0
16:36:20,-1384.0,311.0,310.0
16:36:20,-1384.0,311.0,310.0
16:36:20,-1384.0,311.0,310.0
16:36:20,-1384.0,311.0,310.0
16:36:20,-1398.0,312.0,309.0
16:36:20,-1398.0,312.0,309.0
16:36:20,-1398.0,312.0,309.0
16:36:20,-1398.0,312.0,309.0
16:36:20,-1400.0,311.0,309.0
16:36:20,-1400.0,311.0,309.0
16:36:20,-1400.0,311.0,309.0
16:36:20,-1400.0,311.0,309.0
16:36:20,-1383.0,311.0,309.0
16:36:20,-1383.0,311.0,309.0
16:36:20,-1383.0,311.0,309.0
16:36:20,-1383.0,311.0,309.0
16:36:20,-1374.0,311.0,311.0
16:36:20,-1374.0,311.0,311.0
16:36:20,-1374.0,311.0,311.0
16:36:20,-1374.0,311.0,311.0
16:36:20,-1368.0,312.0,310.0
16:36:20,-1368.0,312.0,310.0
16:36:20,-1368.0,312.0,310.0
16:36:20,-1368.0,312.0,310.0
16:36:20,-1373.0,311.0,310.0
16:36:20,-1373.0,311.0,310.0
16:36:20,-1373.0,311.0,310.0
16:36:20,-1373.0,311.0,310.0
16:36:20,-1356.0,311.0,310.0
16:36:20,-1356.0,311.0,310.0
16:36:20,-1356.0,311.0,310.0
16:36:20,-1356.0,311.0,310.0
16:36:20,-1330.0,310.0,309.0
16:36:20,-1330.0,310.0,309.0
16:36:20,-1330.0,310.0,309.0
16:36:20,-1330.0,310.0,309.0
16:36:20,-1308.0,311.0,309.0
16:36:20,-1308.0,311.0,309.0
16:36:20,-1308.0,311.0,309.0
16:36:20,-1308.0,311.0,309.0
16:36:20,-1247.0,312.0,309.0
16:36:20,-1247.0,312.0,309.0
16:36:20,-1247.0,312.0,309.0
16:36:20,-1247.0,312.0,309.0
16:36:20,-1310.0,312.0,309.0
16:36:20,-1310.0,312.0,309.0
16:36:20,-1310.0,312.0,309.0
16:36:20,-1310.0,312.0,309.0
16:36:20,-1319.0,312.0,308.0
16:36:20,-1319.0,312.0,308.0
16:36:20,-1319.0,312.0,308.0
16:36:20,-1319.0,312.0,308.0
16:36:20,-1332.0,311.0,308.0
16:36:20,-1332.0,311.0,308.0
16:36:20,-1332.0,311.0,308.0
16:36:20,-1332.0,311.0,308.0
16:36:20,-1369.0,312.0,310.0
16:36:20,-1369.0,312.0,310.0
16:36:20,-1369.0,312.0,310.0
16:36:20,-1369.0,312.0,310.0
16:36:20,-1385.0,312.0,309.0
16:36:20,-1385.0,312.0,309.0
16:36:20,-1385.0,312.0,309.0
16:36:20,-1385.0,312.0,309.0
16:36:20,-84.0,311.0,309.0
16:36:20,-84.0,311.0,309.0
16:36:20,-84.0,311.0,309.0
16:36:20,-84.0,311.0,309.0
16:36:20,-1016.0,312.0,308.0
16:36:20,-1016.0,312.0,308.0
16:36:20,-1016.0,312.0,308.0
16:36:20,-1016.0,312.0,308.0
16:36:20,-1355.0,311.0,308.0
16:36:20,-1355.0,311.0,308.0
16:36:20,-1355.0,311.0,308.0
16:36:20,-1355.0,311.0,308.0
16:36:20,-1393.0,311.0,308.0
16:36:20,-1393.0,311.0,308.0
16:36:20,-1393.0,311.0,308.0
16:36:20,-1393.0,311.0,308.0
16:36:20,-1364.0,312.0,308.0
16:36:20,-1364.0,312.0,308.0
16:36:20,-1364.0,312.0,308.0
16:36:20,-1364.0,312.0,308.0
16:36:20,-1329.0,310.0,311.0
16:36:20,-1329.0,310.0,311.0
16:36:20,-1329.0,310.0,311.0
16:36:20,-1329.0,310.0,311.0
16:36:20,-1315.0,311.0,309.0
16:36:21,-1315.0,311.0,309.0
16:36:21,-1315.0,311.0,309.0
16:36:21,-1315.0,311.0,309.0
16:36:21,-1242.0,311.0,309.0
16:36:21,-1242.0,311.0,309.0
16:36:21,-1242.0,311.0,309.0
16:36:21,-1242.0,311.0,309.0
16:36:21,-1188.0,311.0,310.0
16:36:21,-1188.0,311.0,310.0
16:36:21,-1188.0,311.0,310.0
16:36:21,-1188.0,311.0,310.0
16:36:21,-1080.0,312.0,310.0
16:36:21,-1080.0,312.0,310.0
16:36:21,-1080.0,312.0,310.0
16:36:21,-1080.0,312.0,310.0
16:36:21,-1072.0,312.0,308.0
16:36:21,-1072.0,312.0,308.0
16:36:21,-1072.0,312.0,308.0
16:36:21,-1072.0,312.0,308.0
16:36:21,-1104.0,311.0,308.0
16:36:21,-1104.0,311.0,308.0
16:36:21,-1104.0,311.0,308.0
16:36:21,-1104.0,311.0,308.0
16:36:21,-1278.0,311.0,309.0
16:36:21,-1278.0,311.0,309.0
16:36:21,-1278.0,311.0,309.0
16:36:21,-1278.0,311.0,309.0
16:36:21,-1354.0,311.0,309.0
16:36:21,-1354.0,311.0,309.0
16:36:21,-1354.0,311.0,309.0
16:36:21,-1354.0,311.0,309.0
16:36:21,-1419.0,312.0,310.0
16:36:21,-1419.0,312.0,310.0
16:36:21,-1419.0,312.0,310.0
16:36:21,-1419.0,312.0,310.0
16:36:21,-1374.0,311.0,309.0
16:36:21,-1374.0,311.0,309.0
16:36:21,-1374.0,311.0,309.0
16:36:21,-1374.0,311.0,309.0
16:36:21,-1375.0,311.0,309.0
16:36:21,-1375.0,311.0,309.0
16:36:21,-1375.0,311.0,309.0
16:36:21,-1375.0,311.0,309.0
16:36:21,-1379.0,311.0,309.0
16:36:21,-1379.0,311.0,309.0
16:36:21,-1379.0,311.0,309.0
16:36:21,-1379.0,311.0,309.0
16:36:21,-1356.0,310.0,310.0
16:36:21,-1356.0,310.0,310.0
16:36:21,-1356.0,310.0,310.0
16:36:21,-1356.0,310.0,310.0
16:36:21,-1368.0,312.0,309.0
16:36:21,-1368.0,312.0,309.0
16:36:21,-1368.0,312.0,309.0
16:36:21,-1368.0,312.0,309.0
16:36:21,-1344.0,310.0,310.0
16:36:21,-1344.0,310.0,310.0
16:36:21,-1344.0,310.0,310.0
16:36:21,-1344.0,310.0,310.0
16:36:21,-1338.0,311.0,309.0
16:36:21,-1338.0,311.0,309.0
16:36:21,-1338.0,311.0,309.0
16:36:21,-1338.0,311.0,309.0
16:36:21,-1332.0,311.0,309.0
16:36:21,-1332.0,311.0,309.0
16:36:21,-1332.0,311.0,309.0
16:36:21,-1332.0,311.0,309.0
16:36:21,-1343.0,312.0,309.0
16:36:21,-1343.0,312.0,309.0
16:36:21,-1343.0,312.0,309.0
16:36:21,-1343.0,312.0,309.0
16:36:21,-1324.0,311.0,309.0
16:36:21,-1324.0,311.0,309.0
16:36:21,-1324.0,311.0,309.0
16:36:21,-1324.0,311.0,309.0
16:36:21,-1333.0,311.0,310.0
16:36:21,-1333.0,311.0,310.0
16:36:21,-1333.0,311.0,310.0
16:36:21,-1333.0,311.0,310.0
16:36:21,-1339.0,311.0,310.0
16:36:21,-1339.0,311.0,310.0
16:36:21,-1339.0,311.0,310.0
16:36:21,-1339.0,311.0,310.0
16:36:21,-1311.0,312.0,309.0
16:36:21,-1311.0,312.0,309.0
16:36:21,-1311.0,312.0,309.0
16:36:21,-1311.0,312.0,309.0
16:36:21,-1290.0,312.0,309.0
16:36:21,-1290.0,312.0,309.0
16:36:21,-1290.0,312.0,309.0
16:36:21,-1290.0,312.0,309.0
16:36:21,-1283.0,310.0,311.0
16:36:21,-1283.0,310.0,311.0
16:36:21,-1283.0,310.0,311.0
16:36:21,-1283.0,310.0,311.0
16:36:21,-1277.0,312.0,309.0
16:36:21,-1277.0,312.0,309.0
16:36:21,-1277.0,312.0,309.0
16:36:21,-1277.0,312.0,309.0
16:36:21,-1263.0,313.0,309.0
16:36:21,-1263.0,313.0,309.0
16:36:21,-1263.0,313.0,309.0
16:36:21,-1263.0,313.0,309.0
16:36:21,-1341.0,312.0,311.0
16:36:21,-1341.0,312.0,311.0
16:36:21,-1341.0,312.0,311.0
16:36:21,-1341.0,312.0,311.0
16:36:21,-1346.0,312.0,310.0
16:36:21,-1346.0,312.0,310.0
16:36:21,-1346.0,312.0,310.0
16:36:21,-1346.0,312.0,310.0
16:36:21,-1366.0,311.0,309.0
16:36:21,-1366.0,311.0,309.0
16:36:21,-1366.0,311.0,309.0
16:36:21,-1366.0,311.0,309.0
16:36:21,-1522.0,311.0,309.0
16:36:21,-1522.0,311.0,309.0
16:36:21,-1522.0,311.0,309.0
16:36:21,-1522.0,311.0,309.0
16:36:21,-378.0,311.0,310.0
16:36:21,-378.0,311.0,310.0
16:36:21,-378.0,311.0,310.0
16:36:21,-378.0,311.0,310.0
16:36:21,-544.0,311.0,309.0
16:36:21,-544.0,311.0,309.0
16:36:21,-544.0,311.0,309.0
16:36:21,-544.0,311.0,309.0
16:36:21,-1358.0,311.0,310.0
16:36:21,-1358.0,311.0,310.0
16:36:21,-1358.0,311.0,310.0
16:36:21,-1358.0,311.0,310.0
16:36:21,-1412.0,311.0,310.0
16:36:21,-1412.0,311.0,310.0
16:36:21,-1412.0,311.0,310.0
16:36:21,-1412.0,311.0,310.0
16:36:21,-1421.0,309.0,309.0
16:36:21,-1421.0,309.0,309.0
16:36:21,-1421.0,309.0,309.0
16:36:21,-1421.0,309.0,309.0
16:36:21,-1403.0,311.0,309.0
16:36:21,-1403.0,311.0,309.0
16:36:21,-1403.0,311.0,309.0
16:36:21,-1403.0,311.0,309.0
16:36:21,-1364.0,311.0,310.0
16:36:21,-1364.0,311.0,310.0
16:36:21,-1364.0,311.0,310.0
16:36:21,-1364.0,311.0,310.0
16:36:21,-1333.0,311.0,309.0
16:36:21,-1333.0,311.0,309.0
16:36:21,-1333.0,311.0,309.0
16:36:21,-1333.0,311.0,309.0
16:36:21,-1281.0,310.0,310.0
16:36:21,-1281.0,310.0,310.0
16:36:21,-1281.0,310.0,310.0
16:36:21,-1281.0,310.0,310.0
16:36:21,-1212.0,311.0,309.0
16:36:21,-1212.0,311.0,309.0
16:36:21,-1212.0,311.0,309.0
16:36:21,-1212.0,311.0,309.0
16:36:21,-1169.0,310.0,310.0
16:36:21,-1169.0,310.0,310.0
16:36:21,-1169.0,310.0,310.0
16:36:21,-1169.0,310.0,310.0
16:36:21,-1164.0,311.0,308.0
16:36:21,-1164.0,311.0,308.0
16:36:21,-1164.0,311.0,308.0
16:36:21,-1164.0,311.0,308.0
16:36:21,-1327.0,312.0,310.0
16:36:21,-1327.0,312.0,310.0
16:36:21,-1327.0,312.0,310.0
16:36:21,-1327.0,312.0,310.0
16:36:21,-1442.0,312.0,310.0
16:36:21,-1442.0,312.0,310.0
16:36:21,-1442.0,312.0,310.0
16:36:21,-1442.0,312.0,310.0
16:36:21,-1494.0,311.0,310.0
16:36:21,-1494.0,311.0,310.0
16:36:21,-1494.0,311.0,310.0
16:36:21,-1494.0,311.0,310.0
16:36:21,-1529.0,312.0,310.0
16:36:21,-1529.0,312.0,310.0
16:36:21,-1529.0,312.0,310.0
16:36:21,-1529.0,312.0,310.0
16:36:21,-1496.0,311.0,310.0
16:36:21,-1496.0,311.0,310.0
16:36:21,-1496.0,311.0,310.0
16:36:21,-1496.0,311.0,310.0
16:36:21,-1477.0,312.0,310.0
16:36:21,-1477.0,312.0,310.0
16:36:21,-1477.0,312.0,310.0
16:36:21,-1477.0,312.0,310.0
16:36:21,-1453.0,311.0,310.0
16:36:21,-1453.0,311.0,310.0
16:36:21,-1453.0,311.0,310.0
16:36:21,-1453.0,311.0,310.0
16:36:21,-1455.0,311.0,309.0
16:36:21,-1455.0,311.0,309.0
16:36:21,-1455.0,311.0,309.0
16:36:21,-1455.0,311.0,309.0
16:36:21,-1440.0,311.0,309.0
16:36:21,-1440.0,311.0,309.0
16:36:22,-1440.0,311.0,309.0
16:36:22,-1440.0,311.0,309.0
16:36:22,-1457.0,311.0,310.0
16:36:22,-1457.0,311.0,310.0
16:36:22,-1457.0,311.0,310.0
16:36:22,-1457.0,311.0,310.0
16:36:22,-1410.0,311.0,310.0
16:36:22,-1410.0,311.0,310.0
16:36:22,-1410.0,311.0,310.0
16:36:22,-1410.0,311.0,310.0
16:36:22,-1403.0,310.0,309.0
16:36:22,-1403.0,310.0,309.0
16:36:22,-1403.0,310.0,309.0
16:36:22,-1403.0,310.0,309.0
16:36:22,-1391.0,310.0,310.0
16:36:22,-1391.0,310.0,310.0
16:36:22,-1391.0,310.0,310.0
16:36:22,-1391.0,310.0,310.0
16:36:22,-1384.0,310.0,310.0
16:36:22,-1384.0,310.0,310.0
16:36:22,-1384.0,310.0,310.0
16:36:22,-1384.0,310.0,310.0
16:36:22,-1342.0,312.0,310.0
16:36:22,-1342.0,312.0,310.0
16:36:22,-1342.0,312.0,310.0
16:36:22,-1342.0,312.0,310.0
16:36:22,-1426.0,309.0,309.0
16:36:22,-1426.0,309.0,309.0
16:36:22,-1426.0,309.0,309.0
16:36:22,-1426.0,309.0,309.0
16:36:22,-1398.0,312.0,309.0
16:36:22,-1398.0,312.0,309.0
16:36:22,-1398.0,312.0,309.0
16:36:22,-1398.0,312.0,309.0
16:36:22,-1408.0,311.0,309.0
16:36:22,-1408.0,311.0,309.0
16:36:22,-1408.0,311.0,309.0
16:36:22,-1408.0,311.0,309.0
16:36:22,-1433.0,311.0,309.0
16:36:22,-1433.0,311.0,309.0
16:36:22,-1433.0,311.0,309.0
16:36:22,-1433.0,311.0,309.0
16:36:22,-1226.0,312.0,309.0
16:36:22,-1226.0,312.0,309.0
16:36:22,-1226.0,312.0,309.0
16:36:22,-1226.0,312.0,309.0
16:36:22,-241.0,312.0,310.0
16:36:22,-241.0,312.0,310.0
16:36:22,-241.0,312.0,310.0
16:36:22,-241.0,312.0,310.0
16:36:22,-1247.0,311.0,310.0
16:36:22,-1247.0,311.0,310.0
16:36:22,-1247.0,311.0,310.0
16:36:22,-1247.0,311.0,310.0
16:36:22,-1394.0,311.0,309.0
16:36:22,-1394.0,311.0,309.0
16:36:22,-1394.0,311.0,309.0
16:36:22,-1394.0,311.0,309.0
16:36:22,-1431.0,311.0,311.0
16:36:22,-1431.0,311.0,311.0
16:36:22,-1431.0,311.0,311.0
16:36:22,-1431.0,311.0,311.0
16:36:22,-1403.0,311.0,309.0
16:36:22,-1403.0,311.0,309.0
16:36:22,-1403.0,311.0,309.0
16:36:22,-1403.0,311.0,309.0
16:36:22,-1364.0,310.0,309.0
16:36:22,-1364.0,310.0,309.0
16:36:22,-1364.0,310.0,309.0
16:36:22,-1364.0,310.0,309.0
16:36:22,-1352.0,310.0,308.0
16:36:22,-1352.0,310.0,308.0
16:36:22,-1352.0,310.0,308.0
16:36:22,-1352.0,310.0,308.0
16:36:22,-1300.0,312.0,309.0
16:36:22,-1300.0,312.0,309.0
16:36:22,-1300.0,312.0,309.0
16:36:22,-1300.0,312.0,309.0
16:36:22,-1219.0,311.0,308.0
16:36:22,-1219.0,311.0,308.0
16:36:22,-1219.0,311.0,308.0
16:36:22,-1219.0,311.0,308.0
16:36:22,-1138.0,312.0,309.0
16:36:22,-1138.0,312.0,309.0
16:36:22,-1138.0,312.0,309.0
16:36:22,-1138.0,312.0,309.0
16:36:22,-1134.0,312.0,308.0
16:36:22,-1134.0,312.0,308.0
16:36:22,-1134.0,312.0,308.0
16:36:22,-1134.0,312.0,308.0
16:36:22,-1240.0,310.0,309.0
16:36:22,-1240.0,310.0,309.0
16:36:22,-1240.0,310.0,309.0
16:36:22,-1240.0,310.0,309.0
16:36:22,-1457.0,311.0,309.0
16:36:22,-1457.0,311.0,309.0
16:36:22,-1457.0,311.0,309.0
16:36:22,-1457.0,311.0,309.0
16:36:22,-1516.0,311.0,310.0
16:36:22,-1516.0,311.0,310.0
16:36:22,-1516.0,311.0,310.0
16:36:22,-1516.0,311.0,310.0
16:36:22,-1558.0,312.0,310.0
16:36:22,-1558.0,312.0,310.0
16:36:22,-1558.0,312.0,310.0
16:36:22,-1558.0,312.0,310.0
16:36:22,-1514.0,310.0,310.0
16:36:22,-1514.0,310.0,310.0
16:36:22,-1514.0,310.0,310.0
16:36:22,-1514.0,310.0,310.0
16:36:22,-1546.0,311.0,309.0
16:36:22,-1546.0,311.0,309.0
16:36:22,-1546.0,311.0,309.0
16:36:22,-1546.0,311.0,309.0
16:36:22,-1521.0,311.0,311.0
16:36:22,-1521.0,311.0,311.0
16:36:22,-1521.0,311.0,311.0
16:36:22,-1521.0,311.0,311.0
16:36:22,-1519.0,311.0,309.0
16:36:22,-1519.0,311.0,309.0
16:36:22,-1519.0,311.0,309.0
16:36:22,-1519.0,311.0,309.0
16:36:22,-1511.0,312.0,309.0
16:36:22,-1511.0,312.0,309.0
16:36:22,-1511.0,312.0,309.0
16:36:22,-1511.0,312.0,309.0
16:36:22,-1516.0,312.0,309.0
16:36:22,-1516.0,312.0,309.0
16:36:22,-1516.0,312.0,309.0
16:36:22,-1516.0,312.0,309.0
16:36:22,-1493.0,312.0,308.0
16:36:22,-1493.0,312.0,308.0
16:36:22,-1493.0,312.0,308.0
16:36:22,-1493.0,312.0,308.0
16:36:22,-1510.0,311.0,309.0
16:36:22,-1510.0,311.0,309.0
16:36:22,-1510.0,311.0,309.0
16:36:22,-1510.0,311.0,309.0
16:36:22,-1524.0,311.0,308.0
16:36:22,-1524.0,311.0,308.0
16:36:22,-1524.0,311.0,308.0
16:36:22,-1524.0,311.0,308.0
16:36:22,-1509.0,313.0,309.0
16:36:22,-1509.0,313.0,309.0
16:36:22,-1509.0,313.0,309.0
16:36:22,-1509.0,313.0,309.0
16:36:22,-1491.0,311.0,309.0
16:36:22,-1491.0,311.0,309.0
16:36:22,-1491.0,311.0,309.0
16:36:22,-1491.0,311.0,309.0
16:36:22,-1497.0,311.0,308.0
16:36:22,-1497.0,311.0,308.0
16:36:22,-1497.0,311.0,308.0
16:36:22,-1497.0,311.0,308.0
16:36:22,-1471.0,313.0,309.0
16:36:22,-1471.0,313.0,309.0
16:36:22,-1471.0,313.0,309.0
16:36:22,-1471.0,313.0,309.0
16:36:22,-1475.0,311.0,309.0
16:36:22,-1475.0,311.0,309.0
16:36:22,-1475.0,311.0,309.0
16:36:22,-1475.0,311.0,309.0
16:36:22,-1571.0,312.0,309.0
16:36:22,-1571.0,312.0,309.0
16:36:22,-1571.0,312.0,309.0
16:36:22,-1571.0,312.0,309.0
16:36:22,-1543.0,311.0,309.0
16:36:22,-1543.0,311.0,309.0
16:36:22,-1543.0,311.0,309.0
16:36:22,-1543.0,311.0,309.0
16:36:22,-1549.0,312.0,310.0
16:36:22,-1549.0,312.0,310.0
16:36:22,-1549.0,312.0,310.0
16:36:22,-1549.0,312.0,310.0
16:36:22,-1687.0,312.0,310.0
16:36:22,-1687.0,312.0,310.0
16:36:22,-1687.0,312.0,310.0
16:36:22,-1687.0,312.0,310.0
16:36:22,-732.0,311.0,309.0
16:36:22,-732.0,311.0,309.0
16:36:22,-732.0,311.0,309.0
16:36:22,-732.0,311.0,309.0
16:36:22,-466.0,314.0,308.0
16:36:22,-466.0,314.0,308.0
16:36:22,-466.0,314.0,308.0
16:36:22,-466.0,314.0,308.0
16:36:22,-1483.0,312.0,309.0
16:36:22,-1483.0,312.0,309.0
16:36:22,-1483.0,312.0,309.0
16:36:22,-1483.0,312.0,309.0
16:36:22,-1600.0,312.0,308.0
16:36:22,-1600.0,312.0,308.0
16:36:22,-1600.0,312.0,308.0
16:36:22,-1600.0,312.0,308.0
16:36:22,-1588.0,312.0,309.0
16:36:22,-1588.0,312.0,309.0
16:36:22,-1588.0,312.0,309.0
16:36:22,-1588.0,312.0,309.0
16:36:22,-1572.0,311.0,308.0
16:36:22,-1572.0,311.0,308.0
16:36:22,-1572.0,311.0,308.0
16:36:23,-1572.0,311.0,308.0
16:36:23,-1552.0,312.0,309.0
16:36:23,-1552.0,312.0,309.0
16:36:23,-1552.0,312.0,309.0
16:36:23,-1552.0,312.0,309.0
16:36:23,-1510.0,310.0,310.0
16:36:23,-1510.0,310.0,310.0
16:36:23,-1510.0,310.0,310.0
16:36:23,-1510.0,310.0,310.0
16:36:23,-1417.0,312.0,311.0
16:36:23,-1417.0,312.0,311.0
16:36:23,-1417.0,312.0,311.0
16:36:23,-1417.0,312.0,311.0
16:36:23,-1375.0,312.0,309.0
16:36:23,-1375.0,312.0,309.0
16:36:23,-1375.0,312.0,309.0
16:36:23,-1375.0,312.0,309.0
16:36:23,-1261.0,313.0,310.0
16:36:23,-1261.0,313.0,310.0
16:36:23,-1261.0,313.0,310.0
16:36:23,-1261.0,313.0,310.0
16:36:23,-1264.0,311.0,309.0
16:36:23,-1264.0,311.0,309.0
16:36:23,-1264.0,311.0,309.0
16:36:23,-1264.0,311.0,309.0
16:36:23,-1408.0,312.0,309.0
16:36:23,-1408.0,312.0,309.0
16:36:23,-1408.0,312.0,309.0
16:36:23,-1408.0,312.0,309.0
16:36:23,-1568.0,313.0,309.0
16:36:23,-1568.0,313.0,309.0
16:36:23,-1568.0,313.0,309.0
16:36:23,-1568.0,313.0,309.0
16:36:23,-1629.0,311.0,309.0
16:36:23,-1629.0,311.0,309.0
16:36:23,-1629.0,311.0,309.0
16:36:23,-1629.0,311.0,309.0
16:36:23,-1640.0,312.0,310.0
16:36:23,-1640.0,312.0,310.0
16:36:23,-1640.0,312.0,310.0
16:36:23,-1640.0,312.0,310.0
16:36:23,-1653.0,311.0,311.0
16:36:23,-1653.0,311.0,311.0
16:36:23,-1653.0,311.0,311.0
16:36:23,-1653.0,311.0,311.0
16:36:23,-1611.0,312.0,310.0
16:36:23,-1611.0,312.0,310.0
16:36:23,-1611.0,312.0,310.0
16:36:23,-1611.0,312.0,310.0
16:36:23,-1610.0,311.0,309.0
16:36:23,-1610.0,311.0,309.0
16:36:23,-1610.0,311.0,309.0
16:36:23,-1610.0,311.0,309.0
16:36:23,-1596.0,312.0,309.0
16:36:23,-1596.0,312.0,309.0
16:36:23,-1596.0,312.0,309.0
16:36:23,-1596.0,312.0,309.0
16:36:23,-1618.0,312.0,310.0
16:36:23,-1618.0,312.0,310.0
16:36:23,-1618.0,312.0,310.0
16:36:23,-1618.0,312.0,310.0
16:36:23,-1608.0,311.0,310.0
16:36:23,-1608.0,311.0,310.0
16:36:23,-1608.0,311.0,310.0
16:36:23,-1608.0,311.0,310.0
16:36:23,-1591.0,311.0,310.0
16:36:23,-1591.0,311.0,310.0
16:36:23,-1591.0,311.0,310.0
16:36:23,-1591.0,311.0,310.0
16:36:23,-1574.0,312.0,310.0
16:36:23,-1574.0,312.0,310.0
16:36:23,-1574.0,312.0,310.0
16:36:23,-1574.0,312.0,310.0
16:36:23,-1589.0,311.0,310.0
16:36:23,-1589.0,311.0,310.0
16:36:23,-1589.0,311.0,310.0
16:36:23,-1589.0,311.0,310.0
16:36:23,-1593.0,311.0,310.0
16:36:23,-1593.0,311.0,310.0
16:36:23,-1593.0,311.0,310.0
16:36:23,-1593.0,311.0,310.0
16:36:23,-1606.0,310.0,309.0
16:36:23,-1606.0,310.0,309.0
16:36:23,-1606.0,310.0,309.0
16:36:23,-1606.0,310.0,309.0
16:36:23,-1578.0,311.0,309.0
16:36:23,-1578.0,311.0,309.0
16:36:23,-1578.0,311.0,309.0
16:36:23,-1578.0,311.0,309.0
16:36:23,-1592.0,310.0,310.0
16:36:23,-1592.0,310.0,310.0
16:36:23,-1592.0,310.0,310.0
16:36:23,-1592.0,310.0,310.0
16:36:23,-1487.0,311.0,310.0
16:36:23,-1487.0,311.0,310.0
16:36:23,-1487.0,311.0,310.0
16:36:23,-1487.0,311.0,310.0
16:36:23,-1620.0,311.0,309.0
16:36:23,-1620.0,311.0,309.0
16:36:23,-1620.0,311.0,309.0
16:36:23,-1620.0,311.0,309.0
16:36:23,-1662.0,311.0,310.0
16:36:23,-1662.0,311.0,310.0
16:36:23,-1662.0,311.0,310.0
16:36:23,-1662.0,311.0,310.0
16:36:23,-1666.0,311.0,309.0
16:36:23,-1666.0,311.0,309.0
16:36:23,-1666.0,311.0,309.0
16:36:23,-1666.0,311.0,309.0
16:36:23,-1674.0,311.0,309.0
16:36:23,-1674.0,311.0,309.0
16:36:23,-1674.0,311.0,309.0
16:36:23,-1674.0,311.0,309.0
16:36:23,-1885.0,310.0,310.0
16:36:23,-1885.0,310.0,310.0
16:36:23,-1885.0,310.0,310.0
16:36:23,-1885.0,310.0,310.0
16:36:23,-437.0,311.0,310.0
16:36:23,-437.0,311.0,310.0
16:36:23,-437.0,311.0,310.0
16:36:23,-437.0,311.0,310.0
16:36:23,-961.0,311.0,310.0
16:36:23,-961.0,311.0,310.0
16:36:23,-961.0,311.0,310.0
16:36:23,-961.0,311.0,310.0
16:36:23,-1662.0,311.0,308.0
16:36:23,-1662.0,311.0,308.0
16:36:23,-1662.0,311.0,308.0
16:36:23,-1662.0,311.0,308.0
16:36:23,-1731.0,310.0,310.0
16:36:23,-1731.0,310.0,310.0
16:36:23,-1731.0,310.0,310.0
16:36:23,-1731.0,310.0,310.0
16:36:23,-1703.0,310.0,310.0
16:36:23,-1703.0,310.0,310.0
16:36:23,-1703.0,310.0,310.0
16:36:23,-1703.0,310.0,310.0
16:36:23,-1691.0,311.0,310.0
16:36:23,-1691.0,311.0,310.0
16:36:23,-1691.0,311.0,310.0
16:36:23,-1691.0,311.0,310.0
16:36:23,-1665.0,311.0,310.0
16:36:23,-1665.0,311.0,310.0
16:36:23,-1665.0,311.0,310.0
16:36:23,-1665.0,311.0,310.0
16:36:23,-1591.0,310.0,308.0
16:36:23,-1591.0,310.0,308.0
16:36:23,-1591.0,310.0,308.0
16:36:23,-1591.0,310.0,308.0
16:36:23,-1504.0,311.0,310.0
16:36:23,-1504.0,311.0,310.0
16:36:23,-1504.0,311.0,310.0
16:36:23,-1504.0,311.0,310.0
16:36:23,-1411.0,311.0,310.0
16:36:23,-1411.0,311.0,310.0
16:36:23,-1411.0,311.0,310.0
16:36:23,-1411.0,311.0,310.0
16:36:23,-1377.0,311.0,309.0
16:36:23,-1377.0,311.0,309.0
16:36:23,-1377.0,311.0,309.0
16:36:23,-1377.0,311.0,309.0
16:36:23,-1427.0,311.0,310.0
16:36:23,-1427.0,311.0,310.0
16:36:23,-1427.0,311.0,310.0
16:36:23,-1427.0,311.0,310.0
16:36:23,-1594.0,311.0,309.0
16:36:23,-1594.0,311.0,309.0
16:36:23,-1594.0,311.0,309.0
16:36:23,-1594.0,311.0,309.0
16:36:23,-1742.0,310.0,310.0
16:36:23,-1742.0,310.0,310.0
16:36:23,-1742.0,310.0,310.0
16:36:23,-1742.0,310.0,310.0
16:36:23,-1754.0,311.0,310.0
16:36:23,-1754.0,311.0,310.0
16:36:23,-1754.0,311.0,310.0
16:36:23,-1754.0,311.0,310.0
16:36:23,-1759.0,312.0,310.0
16:36:23,-1759.0,312.0,310.0
16:36:23,-1759.0,312.0,310.0
16:36:23,-1759.0,312.0,310.0
16:36:23,-1780.0,311.0,309.0
16:36:23,-1780.0,311.0,309.0
16:36:23,-1780.0,311.0,309.0
16:36:23,-1780.0,311.0,309.0
16:36:23,-1750.0,312.0,309.0
16:36:23,-1750.0,312.0,309.0
16:36:23,-1750.0,312.0,309.0
16:36:23,-1750.0,312.0,309.0
16:36:23,-1767.0,311.0,310.0
16:36:23,-1767.0,311.0,310.0
16:36:23,-1767.0,311.0,310.0
16:36:23,-1767.0,311.0,310.0
16:36:23,-1758.0,311.0,310.0
16:36:23,-1758.0,311.0,310.0
16:36:23,-1758.0,311.0,310.0
16:36:23,-1758.0,311.0,310.0
16:36:23,-1788.0,311.0,309.0
16:36:23,-1788.0,311.0,309.0
16:36:23,-1788.0,311.0,309.0
16:36:23,-1788.0,311.0,309.0
16:36:24,-1774.0,311.0,310.0
16:36:24,-1774.0,311.0,310.0
16:36:24,-1774.0,311.0,310.0
16:36:24,-1774.0,311.0,310.0
16:36:24,-1772.0,312.0,309.0
16:36:24,-1772.0,312.0,309.0
16:36:24,-1772.0,312.0,309.0
16:36:24,-1772.0,312.0,309.0
16:36:24,-1753.0,312.0,308.0
16:36:24,-1753.0,312.0,308.0
16:36:24,-1753.0,312.0,308.0
16:36:24,-1753.0,312.0,308.0
16:36:24,-1767.0,311.0,309.0
16:36:24,-1767.0,311.0,309.0
16:36:24,-1767.0,311.0,309.0
16:36:24,-1767.0,311.0,309.0
16:36:24,-1660.0,311.0,309.0
16:36:24,-1660.0,311.0,309.0
16:36:24,-1660.0,311.0,309.0
16:36:24,-1660.0,311.0,309.0
16:36:24,-1785.0,310.0,311.0
16:36:24,-1785.0,310.0,311.0
16:36:24,-1785.0,310.0,311.0
16:36:24,-1785.0,310.0,311.0
16:36:24,-1777.0,311.0,310.0
16:36:24,-1777.0,311.0,310.0
16:36:24,-1777.0,311.0,310.0
16:36:24,-1777.0,311.0,310.0
16:36:24,-1771.0,311.0,308.0
16:36:24,-1771.0,311.0,308.0
16:36:24,-1771.0,311.0,308.0
16:36:24,-1771.0,311.0,308.0
16:36:24,-1766.0,312.0,309.0
16:36:24,-1766.0,312.0,309.0
16:36:24,-1766.0,312.0,309.0
16:36:24,-1766.0,312.0,309.0
16:36:24,-1969.0,312.0,309.0
16:36:24,-1969.0,312.0,309.0
16:36:24,-1969.0,312.0,309.0
16:36:24,-1969.0,312.0,309.0
16:36:24,-719.0,310.0,309.0
16:36:24,-719.0,310.0,309.0
16:36:24,-719.0,310.0,309.0
16:36:24,-719.0,310.0,309.0
16:36:24,-1012.0,311.0,309.0
16:36:24,-1012.0,311.0,309.0
16:36:24,-1012.0,311.0,309.0
16:36:24,-1012.0,311.0,309.0
16:36:24,-1700.0,312.0,310.0
16:36:24,-1700.0,312.0,310.0
16:36:24,-1700.0,312.0,310.0
16:36:24,-1700.0,312.0,310.0
16:36:24,-1759.0,311.0,309.0
16:36:24,-1759.0,311.0,309.0
16:36:24,-1759.0,311.0,309.0
16:36:24,-1759.0,311.0,309.0
16:36:24,-1763.0,310.0,311.0
16:36:24,-1763.0,310.0,311.0
16:36:24,-1763.0,310.0,311.0
16:36:24,-1763.0,310.0,311.0
16:36:24,-1727.0,310.0,310.0
16:36:24,-1727.0,310.0,310.0
16:36:24,-1727.0,310.0,310.0
16:36:24,-1727.0,310.0,310.0
16:36:24,-1710.0,312.0,309.0
16:36:24,-1710.0,312.0,309.0
16:36:24,-1710.0,312.0,309.0
16:36:24,-1710.0,312.0,309.0
16:36:24,-1614.0,312.0,309.0
16:36:24,-1614.0,312.0,309.0
16:36:24,-1614.0,312.0,309.0
16:36:24,-1614.0,312.0,309.0
16:36:24,-1533.0,312.0,309.0
16:36:24,-1533.0,312.0,309.0
16:36:24,-1533.0,312.0,309.0
16:36:24,-1533.0,312.0,309.0
16:36:24,-1480.0,312.0,310.0
16:36:24,-1480.0,312.0,310.0
16:36:24,-1480.0,312.0,310.0
16:36:24,-1480.0,312.0,310.0
16:36:24,-1404.0,311.0,309.0
16:36:24,-1404.0,311.0,309.0
16:36:24,-1404.0,311.0,309.0
16:36:24,-1404.0,311.0,309.0
16:36:24,-1474.0,312.0,309.0
16:36:24,-1474.0,312.0,309.0
16:36:24,-1474.0,312.0,309.0
16:36:24,-1474.0,312.0,309.0
16:36:24,-1620.0,311.0,309.0
16:36:24,-1620.0,311.0,309.0
16:36:24,-1620.0,311.0,309.0
16:36:24,-1620.0,311.0,309.0
16:36:24,-1763.0,311.0,309.0
16:36:24,-1763.0,311.0,309.0
16:36:24,-1763.0,311.0,309.0
16:36:24,-1763.0,311.0,309.0
16:36:24,-1791.0,309.0,311.0
16:36:24,-1791.0,309.0,311.0
16:36:24,-1791.0,309.0,311.0
16:36:24,-1791.0,309.0,311.0
16:36:24,-1791.0,310.0,309.0
16:36:24,-1791.0,310.0,309.0
16:36:24,-1791.0,310.0,309.0
16:36:24,-1791.0,310.0,309.0
16:36:24,-1784.0,312.0,308.0
16:36:24,-1784.0,312.0,308.0
16:36:24,-1784.0,312.0,308.0
16:36:24,-1784.0,312.0,308.0
16:36:24,-1745.0,311.0,309.0
16:36:24,-1745.0,311.0,309.0
16:36:24,-1745.0,311.0,309.0
16:36:24,-1745.0,311.0,309.0
16:36:24,-1748.0,312.0,309.0
16:36:24,-1748.0,312.0,309.0
16:36:24,-1748.0,312.0,309.0
16:36:24,-1748.0,312.0,309.0
16:36:24,-1738.0,311.0,309.0
16:36:24,-1738.0,311.0,309.0
16:36:24,-1738.0,311.0,309.0
16:36:24,-1738.0,311.0,309.0
16:36:24,-1735.0,312.0,310.0
16:36:24,-1735.0,312.0,310.0
16:36:24,-1735.0,312.0,310.0
16:36:24,-1735.0,312.0,310.0
16:36:24,-1737.0,311.0,309.0
16:36:24,-1737.0,311.0,309.0
16:36:24,-1737.0,311.0,309.0
16:36:24,-1737.0,311.0,309.0
16:36:24,-1681.0,310.0,308.0
16:36:24,-1681.0,310.0,308.0
16:36:24,-1681.0,310.0,308.0
16:36:24,-1681.0,310.0,308.0
16:36:24,-1667.0,312.0,309.0
16:36:24,-1667.0,312.0,309.0
16:36:24,-1667.0,312.0,309.0
16:36:24,-1667.0,312.0,309.0
16:36:24,-1666.0,311.0,310.0
16:36:24,-1666.0,311.0,310.0
16:36:24,-1666.0,311.0,310.0
16:36:24,-1666.0,311.0,310.0
16:36:24,-1620.0,311.0,310.0
16:36:24,-1620.0,311.0,310.0
16:36:24,-1620.0,311.0,310.0
16:36:24,-1620.0,311.0,310.0
16:36:24,-1742.0,312.0,309.0
16:36:24,-1742.0,312.0,309.0
16:36:24,-1742.0,312.0,309.0
16:36:24,-1742.0,312.0,309.0
16:36:24,-1716.0,311.0,310.0
16:36:24,-1716.0,311.0,310.0
16:36:24,-1716.0,311.0,310.0
16:36:24,-1716.0,311.0,310.0
16:36:24,-1731.0,312.0,309.0
16:36:24,-1731.0,312.0,309.0
16:36:24,-1731.0,312.0,309.0
16:36:24,-1731.0,312.0,309.0
16:36:24,-1749.0,311.0,310.0
