Wed Apr 16 21:36:06 IST 2025
TimeStamp,ECG,PPG
21:36:06,2038.0,266.0,274.0
21:36:06,2038.0,266.0,274.0
21:36:06,2038.0,266.0,274.0
21:36:06,2039.0,267.0,275.0
21:36:06,2039.0,267.0,275.0
21:36:06,2039.0,267.0,275.0
21:36:06,2039.0,267.0,275.0
21:36:06,1928.0,266.0,275.0
21:36:06,1928.0,266.0,275.0
21:36:06,1928.0,266.0,275.0
21:36:06,1928.0,266.0,275.0
21:36:06,1816.0,266.0,274.0
21:36:06,1816.0,266.0,274.0
21:36:06,1816.0,266.0,274.0
21:36:06,1816.0,266.0,274.0
21:36:06,1787.0,267.0,275.0
21:36:06,1787.0,267.0,275.0
21:36:06,1787.0,267.0,275.0
21:36:06,1787.0,267.0,275.0
21:36:06,1713.0,265.0,274.0
21:36:06,1713.0,265.0,274.0
21:36:06,1713.0,265.0,274.0
21:36:06,1713.0,265.0,274.0
21:36:06,1695.0,267.0,274.0
21:36:06,1695.0,267.0,274.0
21:36:06,1695.0,267.0,274.0
21:36:06,1695.0,267.0,274.0
21:36:06,1689.0,267.0,275.0
21:36:06,1689.0,267.0,275.0
21:36:06,1689.0,267.0,275.0
21:36:06,1689.0,267.0,275.0
21:36:06,2267.0,267.0,275.0
21:36:06,2267.0,267.0,275.0
21:36:06,2267.0,267.0,275.0
21:36:06,2267.0,267.0,275.0
21:36:06,1247.0,267.0,274.0
21:36:06,1247.0,267.0,274.0
21:36:06,1247.0,267.0,274.0
21:36:06,1247.0,267.0,274.0
21:36:06,1280.0,267.0,276.0
21:36:06,1280.0,267.0,276.0
21:36:06,1280.0,267.0,276.0
21:36:06,1280.0,267.0,276.0
21:36:06,1563.0,267.0,275.0
21:36:06,1563.0,267.0,275.0
21:36:06,1563.0,267.0,275.0
21:36:06,1563.0,267.0,275.0
21:36:06,1548.0,266.0,275.0
21:36:06,1548.0,266.0,275.0
21:36:06,1548.0,266.0,275.0
21:36:06,1548.0,266.0,275.0
21:36:06,1548.0,267.0,276.0
21:36:06,1548.0,267.0,276.0
21:36:06,1548.0,267.0,276.0
21:36:06,1548.0,267.0,276.0
21:36:06,1449.0,268.0,275.0
21:36:06,1449.0,268.0,275.0
21:36:06,1449.0,268.0,275.0
21:36:06,1449.0,268.0,275.0
21:36:06,1499.0,267.0,275.0
21:36:06,1499.0,267.0,275.0
21:36:06,1499.0,267.0,275.0
21:36:06,1499.0,267.0,275.0
21:36:06,1529.0,267.0,275.0
21:36:06,1529.0,267.0,275.0
21:36:06,1529.0,267.0,275.0
21:36:06,1529.0,267.0,275.0
21:36:06,1460.0,268.0,275.0
21:36:06,1460.0,268.0,275.0
21:36:06,1460.0,268.0,275.0
21:36:06,1460.0,268.0,275.0
21:36:06,1486.0,267.0,276.0
21:36:06,1486.0,267.0,276.0
21:36:06,1486.0,267.0,276.0
21:36:06,1486.0,267.0,276.0
21:36:06,1416.0,268.0,276.0
21:36:06,1416.0,268.0,276.0
21:36:06,1416.0,268.0,276.0
21:36:06,1416.0,268.0,276.0
21:36:06,1321.0,267.0,275.0
21:36:06,1321.0,267.0,275.0
21:36:06,1321.0,267.0,275.0
21:36:06,1321.0,267.0,275.0
21:36:06,1194.0,267.0,276.0
21:36:06,1194.0,267.0,276.0
21:36:06,1194.0,267.0,276.0
21:36:06,1194.0,267.0,276.0
21:36:06,1170.0,268.0,276.0
21:36:06,1170.0,268.0,276.0
21:36:06,1170.0,268.0,276.0
21:36:06,1170.0,268.0,276.0
21:36:06,1099.0,268.0,276.0
21:36:06,1099.0,268.0,276.0
21:36:06,1099.0,268.0,276.0
21:36:06,1099.0,268.0,276.0
21:36:06,1077.0,268.0,275.0
21:36:06,1077.0,268.0,275.0
21:36:06,1077.0,268.0,275.0
21:36:06,1077.0,268.0,275.0
21:36:06,1027.0,268.0,275.0
21:36:06,1027.0,268.0,275.0
21:36:06,1027.0,268.0,275.0
21:36:06,1027.0,268.0,275.0
21:36:06,994.0,267.0,276.0
21:36:06,994.0,267.0,276.0
21:36:06,994.0,267.0,276.0
21:36:06,994.0,267.0,276.0
21:36:06,989.0,267.0,274.0
21:36:06,989.0,267.0,274.0
21:36:06,989.0,267.0,274.0
21:36:06,989.0,267.0,274.0
21:36:06,905.0,268.0,276.0
21:36:06,905.0,268.0,276.0
21:36:06,905.0,268.0,276.0
21:36:06,905.0,268.0,276.0
21:36:06,893.0,267.0,275.0
21:36:06,893.0,267.0,275.0
21:36:06,893.0,267.0,275.0
21:36:06,893.0,267.0,275.0
21:36:06,871.0,268.0,276.0
21:36:06,871.0,268.0,276.0
21:36:06,871.0,268.0,276.0
21:36:06,871.0,268.0,276.0
21:36:06,841.0,267.0,274.0
21:36:06,841.0,267.0,274.0
21:36:06,841.0,267.0,274.0
21:36:06,841.0,267.0,274.0
21:36:06,811.0,268.0,275.0
21:36:06,811.0,268.0,275.0
21:36:06,811.0,268.0,275.0
21:36:06,811.0,268.0,275.0
21:36:06,750.0,267.0,275.0
21:36:06,750.0,267.0,275.0
21:36:06,750.0,267.0,275.0
21:36:06,750.0,267.0,275.0
21:36:06,744.0,267.0,274.0
21:36:06,744.0,267.0,274.0
21:36:06,744.0,267.0,274.0
21:36:06,744.0,267.0,274.0
21:36:06,737.0,266.0,275.0
21:36:06,737.0,266.0,275.0
21:36:06,737.0,266.0,275.0
21:36:06,737.0,266.0,275.0
21:36:06,697.0,267.0,274.0
21:36:06,697.0,267.0,274.0
21:36:06,697.0,267.0,274.0
21:36:06,697.0,267.0,274.0
21:36:07,717.0,266.0,274.0
21:36:07,717.0,266.0,274.0
21:36:07,717.0,266.0,274.0
21:36:07,717.0,266.0,274.0
21:36:07,666.0,267.0,276.0
21:36:07,666.0,267.0,276.0
21:36:07,666.0,267.0,276.0
21:36:07,666.0,267.0,276.0
21:36:07,609.0,267.0,275.0
21:36:07,609.0,267.0,275.0
21:36:07,609.0,267.0,275.0
21:36:07,609.0,267.0,275.0
21:36:07,567.0,266.0,276.0
21:36:07,567.0,266.0,276.0
21:36:07,567.0,266.0,276.0
21:36:07,567.0,266.0,276.0
21:36:07,510.0,267.0,275.0
21:36:07,510.0,267.0,275.0
21:36:07,510.0,267.0,275.0
21:36:07,510.0,267.0,275.0
21:36:07,470.0,267.0,276.0
21:36:07,470.0,267.0,276.0
21:36:07,470.0,267.0,276.0
21:36:07,470.0,267.0,276.0
21:36:07,471.0,267.0,276.0
21:36:07,471.0,267.0,276.0
21:36:07,471.0,267.0,276.0
21:36:07,471.0,267.0,276.0
21:36:07,462.0,266.0,275.0
21:36:07,462.0,266.0,275.0
21:36:07,462.0,266.0,275.0
21:36:07,462.0,266.0,275.0
21:36:07,651.0,267.0,276.0
21:36:07,651.0,267.0,276.0
21:36:07,651.0,267.0,276.0
21:36:07,651.0,267.0,276.0
21:36:07,263.0,267.0,275.0
21:36:07,263.0,267.0,275.0
21:36:07,263.0,267.0,275.0
21:36:07,263.0,267.0,275.0
21:36:07,255.0,268.0,275.0
21:36:07,255.0,268.0,275.0
21:36:07,255.0,268.0,275.0
21:36:07,255.0,268.0,275.0
21:36:07,340.0,267.0,275.0
21:36:07,340.0,267.0,275.0
21:36:07,340.0,267.0,275.0
21:36:07,340.0,267.0,275.0
21:36:07,322.0,266.0,274.0
21:36:07,322.0,266.0,274.0
21:36:07,322.0,266.0,274.0
21:36:07,322.0,266.0,274.0
21:36:07,308.0,268.0,274.0
21:36:07,308.0,268.0,274.0
21:36:07,308.0,268.0,274.0
21:36:07,308.0,268.0,274.0
21:36:07,282.0,268.0,275.0
21:36:07,282.0,268.0,275.0
21:36:07,282.0,268.0,275.0
21:36:07,282.0,268.0,275.0
21:36:07,272.0,267.0,274.0
21:36:07,272.0,267.0,274.0
21:36:07,272.0,267.0,274.0
21:36:07,272.0,267.0,274.0
21:36:07,239.0,266.0,276.0
21:36:07,239.0,266.0,276.0
21:36:07,239.0,266.0,276.0
21:36:07,239.0,266.0,276.0
21:36:07,242.0,267.0,274.0
21:36:07,242.0,267.0,274.0
21:36:07,242.0,267.0,274.0
21:36:07,242.0,267.0,274.0
21:36:07,237.0,267.0,275.0
21:36:07,237.0,267.0,275.0
21:36:07,237.0,267.0,275.0
21:36:07,237.0,267.0,275.0
21:36:07,200.0,266.0,275.0
21:36:07,200.0,266.0,275.0
21:36:07,200.0,266.0,275.0
21:36:07,200.0,266.0,275.0
21:36:07,170.0,267.0,275.0
21:36:07,170.0,267.0,275.0
21:36:07,170.0,267.0,275.0
21:36:07,170.0,267.0,275.0
21:36:07,111.0,267.0,276.0
21:36:07,111.0,267.0,276.0
21:36:07,111.0,267.0,276.0
21:36:07,111.0,267.0,276.0
21:36:07,86.0,267.0,276.0
21:36:07,86.0,267.0,276.0
21:36:07,86.0,267.0,276.0
21:36:07,86.0,267.0,276.0
21:36:07,75.0,266.0,275.0
21:36:07,75.0,266.0,275.0
21:36:07,75.0,266.0,275.0
21:36:07,75.0,266.0,275.0
21:36:07,49.0,266.0,275.0
21:36:07,49.0,266.0,275.0
21:36:07,49.0,266.0,275.0
21:36:07,49.0,266.0,275.0
21:36:07,41.0,266.0,275.0
21:36:07,41.0,266.0,275.0
21:36:07,41.0,266.0,275.0
21:36:07,41.0,266.0,275.0
21:36:07,16.0,266.0,274.0
21:36:07,16.0,266.0,274.0
21:36:07,16.0,266.0,274.0
21:36:07,16.0,266.0,274.0
21:36:07,-4.0,267.0,274.0
21:36:07,-4.0,267.0,274.0
21:36:07,-4.0,267.0,274.0
21:36:07,-4.0,267.0,274.0
21:36:07,11.0,267.0,275.0
21:36:07,11.0,267.0,275.0
21:36:07,11.0,267.0,275.0
21:36:07,11.0,267.0,275.0
21:36:07,-14.0,268.0,274.0
21:36:07,-14.0,268.0,274.0
21:36:07,-14.0,268.0,274.0
21:36:07,-14.0,268.0,274.0
21:36:07,-22.0,267.0,275.0
21:36:07,-22.0,267.0,275.0
21:36:07,-22.0,267.0,275.0
21:36:07,-22.0,267.0,275.0
21:36:07,-28.0,267.0,273.0
21:36:07,-28.0,267.0,273.0
21:36:07,-28.0,267.0,273.0
21:36:07,-28.0,267.0,273.0
21:36:07,-37.0,267.0,273.0
21:36:07,-37.0,267.0,273.0
21:36:07,-37.0,267.0,273.0
21:36:07,-37.0,267.0,273.0
21:36:07,-41.0,267.0,273.0
21:36:07,-41.0,267.0,273.0
21:36:07,-41.0,267.0,273.0
21:36:07,-41.0,267.0,273.0
21:36:07,-50.0,266.0,273.0
21:36:07,-50.0,266.0,273.0
21:36:07,-50.0,266.0,273.0
21:36:07,-50.0,266.0,273.0
21:36:07,-58.0,265.0,274.0
21:36:07,-58.0,265.0,274.0
21:36:07,-58.0,265.0,274.0
21:36:07,-58.0,265.0,274.0
21:36:07,-55.0,265.0,274.0
21:36:07,-55.0,265.0,274.0
21:36:07,-55.0,265.0,274.0
21:36:07,-55.0,265.0,274.0
21:36:07,-57.0,266.0,274.0
21:36:07,-57.0,266.0,274.0
21:36:07,-57.0,266.0,274.0
21:36:07,-57.0,266.0,274.0
21:36:07,-55.0,265.0,275.0
21:36:07,-55.0,265.0,275.0
21:36:07,-55.0,265.0,275.0
21:36:07,-55.0,265.0,275.0
21:36:07,-47.0,267.0,273.0
21:36:07,-47.0,267.0,273.0
21:36:07,-47.0,267.0,273.0
21:36:07,-47.0,267.0,273.0
21:36:07,-49.0,266.0,274.0
21:36:07,-49.0,266.0,274.0
21:36:07,-49.0,266.0,274.0
21:36:07,-49.0,266.0,274.0
21:36:07,-58.0,267.0,273.0
21:36:07,-58.0,267.0,273.0
21:36:07,-58.0,267.0,273.0
21:36:07,-58.0,267.0,273.0
21:36:07,-51.0,265.0,273.0
21:36:07,-51.0,265.0,273.0
21:36:07,-51.0,265.0,273.0
21:36:07,-51.0,265.0,273.0
21:36:07,-73.0,266.0,274.0
21:36:07,-73.0,266.0,274.0
21:36:07,-73.0,266.0,274.0
21:36:07,-73.0,266.0,274.0
21:36:07,-61.0,266.0,274.0
21:36:07,-61.0,266.0,274.0
21:36:07,-61.0,266.0,274.0
21:36:07,-61.0,266.0,274.0
21:36:07,-54.0,265.0,274.0
21:36:07,-54.0,265.0,274.0
21:36:07,-54.0,265.0,274.0
21:36:07,-54.0,265.0,274.0
21:36:07,-43.0,266.0,272.0
21:36:07,-43.0,266.0,272.0
21:36:07,-43.0,266.0,272.0
21:36:07,-43.0,266.0,272.0
21:36:07,84.0,265.0,274.0
21:36:07,84.0,265.0,274.0
21:36:07,84.0,265.0,274.0
21:36:07,84.0,265.0,274.0
21:36:07,-54.0,265.0,273.0
21:36:07,-54.0,265.0,273.0
21:36:07,-54.0,265.0,273.0
21:36:07,-54.0,265.0,273.0
21:36:07,-89.0,265.0,274.0
21:36:07,-89.0,265.0,274.0
21:36:07,-89.0,265.0,274.0
21:36:07,-89.0,265.0,274.0
21:36:07,-2.0,265.0,273.0
21:36:08,-2.0,265.0,273.0
21:36:08,-2.0,265.0,273.0
21:36:08,-2.0,265.0,273.0
21:36:08,12.0,266.0,273.0
21:36:08,12.0,266.0,273.0
21:36:08,12.0,266.0,273.0
21:36:08,12.0,266.0,273.0
21:36:08,42.0,265.0,273.0
21:36:08,42.0,265.0,273.0
21:36:08,42.0,265.0,273.0
21:36:08,42.0,265.0,273.0
21:36:08,48.0,266.0,273.0
21:36:08,48.0,266.0,273.0
21:36:08,48.0,266.0,273.0
21:36:08,48.0,266.0,273.0
21:36:08,74.0,266.0,274.0
21:36:08,74.0,266.0,274.0
21:36:08,74.0,266.0,274.0
21:36:08,74.0,266.0,274.0
21:36:08,102.0,266.0,273.0
21:36:08,102.0,266.0,273.0
21:36:08,102.0,266.0,273.0
21:36:08,102.0,266.0,273.0
21:36:08,137.0,266.0,273.0
21:36:08,137.0,266.0,273.0
21:36:08,137.0,266.0,273.0
21:36:08,137.0,266.0,273.0
21:36:08,163.0,265.0,271.0
21:36:08,163.0,265.0,271.0
21:36:08,163.0,265.0,271.0
21:36:08,163.0,265.0,271.0
21:36:08,174.0,265.0,272.0
21:36:08,174.0,265.0,272.0
21:36:08,174.0,265.0,272.0
21:36:08,174.0,265.0,272.0
21:36:08,185.0,263.0,272.0
21:36:08,185.0,263.0,272.0
21:36:08,185.0,263.0,272.0
21:36:08,185.0,263.0,272.0
21:36:08,174.0,265.0,273.0
21:36:08,174.0,265.0,273.0
21:36:08,174.0,265.0,273.0
21:36:08,174.0,265.0,273.0
21:36:08,170.0,264.0,272.0
21:36:08,170.0,264.0,272.0
21:36:08,170.0,264.0,272.0
21:36:08,170.0,264.0,272.0
21:36:08,192.0,265.0,273.0
21:36:08,192.0,265.0,273.0
21:36:08,192.0,265.0,273.0
21:36:08,192.0,265.0,273.0
21:36:08,218.0,264.0,273.0
21:36:08,218.0,264.0,273.0
21:36:08,218.0,264.0,273.0
21:36:08,218.0,264.0,273.0
21:36:08,252.0,265.0,273.0
21:36:08,252.0,265.0,273.0
21:36:08,252.0,265.0,273.0
21:36:08,252.0,265.0,273.0
21:36:08,287.0,265.0,272.0
21:36:08,287.0,265.0,272.0
21:36:08,287.0,265.0,272.0
21:36:08,287.0,265.0,272.0
21:36:08,302.0,264.0,273.0
21:36:08,302.0,264.0,273.0
21:36:08,302.0,264.0,273.0
21:36:08,302.0,264.0,273.0
21:36:08,311.0,265.0,274.0
21:36:08,311.0,265.0,274.0
21:36:08,311.0,265.0,274.0
21:36:08,311.0,265.0,274.0
21:36:08,353.0,265.0,274.0
21:36:08,353.0,265.0,274.0
21:36:08,353.0,265.0,274.0
21:36:08,353.0,265.0,274.0
21:36:08,397.0,265.0,274.0
21:36:08,397.0,265.0,274.0
21:36:08,397.0,265.0,274.0
21:36:08,397.0,265.0,274.0
21:36:08,431.0,265.0,273.0
21:36:08,431.0,265.0,273.0
21:36:08,431.0,265.0,273.0
21:36:08,431.0,265.0,273.0
21:36:08,460.0,266.0,273.0
21:36:08,460.0,266.0,273.0
21:36:08,460.0,266.0,273.0
21:36:08,460.0,266.0,273.0
21:36:08,474.0,264.0,273.0
21:36:08,474.0,264.0,273.0
21:36:08,474.0,264.0,273.0
21:36:08,474.0,264.0,273.0
21:36:08,526.0,265.0,273.0
21:36:08,526.0,265.0,273.0
21:36:08,526.0,265.0,273.0
21:36:08,526.0,265.0,273.0
21:36:08,568.0,266.0,273.0
21:36:08,568.0,266.0,273.0
21:36:08,568.0,266.0,273.0
21:36:08,568.0,266.0,273.0
21:36:08,587.0,265.0,273.0
21:36:08,587.0,265.0,273.0
21:36:08,587.0,265.0,273.0
21:36:08,587.0,265.0,273.0
21:36:08,612.0,264.0,274.0
21:36:08,612.0,264.0,274.0
21:36:08,612.0,264.0,274.0
21:36:08,612.0,264.0,274.0
21:36:08,644.0,266.0,274.0
21:36:08,644.0,266.0,274.0
21:36:08,644.0,266.0,274.0
21:36:08,644.0,266.0,274.0
21:36:08,712.0,264.0,274.0
21:36:08,712.0,264.0,274.0
21:36:08,712.0,264.0,274.0
21:36:08,712.0,264.0,274.0
21:36:08,742.0,265.0,275.0
21:36:08,742.0,265.0,275.0
21:36:08,742.0,265.0,275.0
21:36:08,742.0,265.0,275.0
21:36:08,834.0,266.0,274.0
21:36:08,834.0,266.0,274.0
21:36:08,834.0,266.0,274.0
21:36:08,834.0,266.0,274.0
21:36:08,830.0,266.0,273.0
21:36:08,830.0,266.0,273.0
21:36:08,830.0,266.0,273.0
21:36:08,830.0,266.0,273.0
21:36:08,852.0,267.0,274.0
21:36:08,852.0,267.0,274.0
21:36:08,852.0,267.0,274.0
21:36:08,852.0,267.0,274.0
21:36:08,882.0,265.0,274.0
21:36:08,882.0,265.0,274.0
21:36:08,882.0,265.0,274.0
21:36:08,882.0,265.0,274.0
21:36:08,922.0,265.0,275.0
21:36:08,922.0,265.0,275.0
21:36:08,922.0,265.0,275.0
21:36:08,922.0,265.0,275.0
21:36:08,922.0,265.0,274.0
21:36:08,922.0,265.0,274.0
21:36:08,922.0,265.0,274.0
21:36:08,922.0,265.0,274.0
21:36:08,963.0,266.0,274.0
21:36:08,963.0,266.0,274.0
21:36:08,963.0,266.0,274.0
21:36:08,963.0,266.0,274.0
21:36:08,1308.0,266.0,273.0
21:36:08,1308.0,266.0,273.0
21:36:08,1308.0,266.0,273.0
21:36:08,1308.0,266.0,273.0
21:36:08,1227.0,265.0,274.0
21:36:08,1227.0,265.0,274.0
21:36:08,1227.0,265.0,274.0
21:36:08,1227.0,265.0,274.0
21:36:08,790.0,266.0,273.0
21:36:08,790.0,266.0,273.0
21:36:08,790.0,266.0,273.0
21:36:08,790.0,266.0,273.0
21:36:08,1082.0,266.0,273.0
21:36:08,1082.0,266.0,273.0
21:36:08,1082.0,266.0,273.0
21:36:08,1082.0,266.0,273.0
21:36:08,1240.0,265.0,273.0
21:36:08,1240.0,265.0,273.0
21:36:08,1240.0,265.0,273.0
21:36:08,1240.0,265.0,273.0
21:36:08,1311.0,266.0,274.0
21:36:08,1311.0,266.0,274.0
21:36:08,1311.0,266.0,274.0
21:36:08,1311.0,266.0,274.0
21:36:08,1329.0,266.0,274.0
21:36:08,1329.0,266.0,274.0
21:36:08,1329.0,266.0,274.0
21:36:08,1329.0,266.0,274.0
21:36:08,1432.0,266.0,274.0
21:36:08,1432.0,266.0,274.0
21:36:08,1432.0,266.0,274.0
21:36:08,1432.0,266.0,274.0
21:36:08,1512.0,266.0,275.0
21:36:08,1512.0,266.0,275.0
21:36:08,1512.0,266.0,275.0
21:36:08,1512.0,266.0,275.0
21:36:08,1578.0,266.0,275.0
21:36:08,1578.0,266.0,275.0
21:36:08,1578.0,266.0,275.0
21:36:08,1578.0,266.0,275.0
21:36:08,1633.0,264.0,274.0
21:36:08,1633.0,264.0,274.0
21:36:08,1633.0,264.0,274.0
21:36:08,1633.0,264.0,274.0
21:36:08,1708.0,266.0,275.0
21:36:08,1708.0,266.0,275.0
21:36:08,1708.0,266.0,275.0
21:36:08,1708.0,266.0,275.0
21:36:08,1782.0,265.0,275.0
21:36:08,1782.0,265.0,275.0
21:36:08,1782.0,265.0,275.0
21:36:08,1782.0,265.0,275.0
21:36:08,1705.0,267.0,275.0
21:36:08,1705.0,267.0,275.0
21:36:09,1705.0,267.0,275.0
21:36:09,1705.0,267.0,275.0
21:36:09,1630.0,267.0,274.0
21:36:09,1630.0,267.0,274.0
21:36:09,1630.0,267.0,274.0
21:36:09,1630.0,267.0,274.0
21:36:09,1664.0,267.0,275.0
21:36:09,1664.0,267.0,275.0
21:36:09,1664.0,267.0,275.0
21:36:09,1664.0,267.0,275.0
21:36:09,1660.0,268.0,273.0
21:36:09,1660.0,268.0,273.0
21:36:09,1660.0,268.0,273.0
21:36:09,1660.0,268.0,273.0
21:36:09,1748.0,267.0,274.0
21:36:09,1748.0,267.0,274.0
21:36:09,1748.0,267.0,274.0
21:36:09,1748.0,267.0,274.0
21:36:09,1828.0,267.0,274.0
21:36:09,1828.0,267.0,274.0
21:36:09,1828.0,267.0,274.0
21:36:09,1828.0,267.0,274.0
21:36:09,1876.0,267.0,275.0
21:36:09,1876.0,267.0,275.0
21:36:09,1876.0,267.0,275.0
21:36:09,1876.0,267.0,275.0
21:36:09,1904.0,266.0,276.0
21:36:09,1904.0,266.0,276.0
21:36:09,1904.0,266.0,276.0
21:36:09,1904.0,266.0,276.0
21:36:09,1937.0,266.0,275.0
21:36:09,1937.0,266.0,275.0
21:36:09,1937.0,266.0,275.0
21:36:09,1937.0,266.0,275.0
21:36:09,2006.0,268.0,275.0
21:36:09,2006.0,268.0,275.0
21:36:09,2006.0,268.0,275.0
21:36:09,2006.0,268.0,275.0
21:36:09,2022.0,266.0,276.0
21:36:09,2022.0,266.0,276.0
21:36:09,2022.0,266.0,276.0
21:36:09,2022.0,266.0,276.0
21:36:09,2012.0,266.0,275.0
21:36:09,2012.0,266.0,275.0
21:36:09,2012.0,266.0,275.0
21:36:09,2012.0,266.0,275.0
21:36:09,2077.0,267.0,276.0
21:36:09,2077.0,267.0,276.0
21:36:09,2077.0,267.0,276.0
21:36:09,2077.0,267.0,276.0
21:36:09,2128.0,268.0,276.0
21:36:09,2128.0,268.0,276.0
21:36:09,2128.0,268.0,276.0
21:36:09,2128.0,268.0,276.0
21:36:09,2162.0,267.0,275.0
21:36:09,2162.0,267.0,275.0
21:36:09,2162.0,267.0,275.0
21:36:09,2162.0,267.0,275.0
21:36:09,2215.0,266.0,276.0
21:36:09,2215.0,266.0,276.0
21:36:09,2215.0,266.0,276.0
21:36:09,2215.0,266.0,276.0
21:36:09,2268.0,266.0,275.0
21:36:09,2268.0,266.0,275.0
21:36:09,2268.0,266.0,275.0
21:36:09,2268.0,266.0,275.0
21:36:09,2350.0,267.0,276.0
21:36:09,2350.0,267.0,276.0
21:36:09,2350.0,267.0,276.0
21:36:09,2350.0,267.0,276.0
21:36:09,2440.0,267.0,275.0
21:36:09,2440.0,267.0,275.0
21:36:09,2440.0,267.0,275.0
21:36:09,2440.0,267.0,275.0
21:36:09,2449.0,267.0,275.0
21:36:09,2449.0,267.0,275.0
21:36:09,2449.0,267.0,275.0
21:36:09,2449.0,267.0,275.0
21:36:09,2408.0,267.0,275.0
21:36:09,2408.0,267.0,275.0
21:36:09,2408.0,267.0,275.0
21:36:09,2408.0,267.0,275.0
21:36:09,2415.0,268.0,276.0
21:36:09,2415.0,268.0,276.0
21:36:09,2415.0,268.0,276.0
21:36:09,2415.0,268.0,276.0
21:36:09,2491.0,268.0,275.0
21:36:09,2491.0,268.0,275.0
21:36:09,2491.0,268.0,275.0
21:36:09,2491.0,268.0,275.0
21:36:09,2425.0,267.0,275.0
21:36:09,2425.0,267.0,275.0
21:36:09,2425.0,267.0,275.0
21:36:09,2425.0,267.0,275.0
21:36:09,2446.0,268.0,274.0
21:36:09,2446.0,268.0,274.0
21:36:09,2446.0,268.0,274.0
21:36:09,2446.0,268.0,274.0
21:36:09,3094.0,268.0,274.0
21:36:09,3094.0,268.0,274.0
21:36:09,3094.0,268.0,274.0
21:36:09,3094.0,268.0,274.0
21:36:09,2900.0,266.0,275.0
21:36:09,2900.0,266.0,275.0
21:36:09,2900.0,266.0,275.0
21:36:09,2900.0,266.0,275.0
21:36:09,2041.0,266.0,274.0
21:36:09,2041.0,266.0,274.0
21:36:09,2041.0,266.0,274.0
21:36:09,2041.0,266.0,274.0
21:36:09,2531.0,266.0,276.0
21:36:09,2531.0,266.0,276.0
21:36:09,2531.0,266.0,276.0
21:36:09,2531.0,266.0,276.0
21:36:09,2797.0,267.0,276.0
21:36:09,2797.0,267.0,276.0
21:36:09,2797.0,267.0,276.0
21:36:09,2797.0,267.0,276.0
21:36:09,2777.0,268.0,276.0
21:36:09,2777.0,268.0,276.0
21:36:09,2777.0,268.0,276.0
21:36:09,2777.0,268.0,276.0
21:36:09,2886.0,267.0,276.0
21:36:09,2886.0,267.0,276.0
21:36:09,2886.0,267.0,276.0
21:36:09,2886.0,267.0,276.0
21:36:09,2984.0,269.0,276.0
21:36:09,2984.0,269.0,276.0
21:36:09,2984.0,269.0,276.0
21:36:09,2984.0,269.0,276.0
21:36:09,2996.0,267.0,276.0
21:36:09,2996.0,267.0,276.0
21:36:09,2996.0,267.0,276.0
21:36:09,2996.0,267.0,276.0
21:36:09,3135.0,267.0,276.0
21:36:09,3135.0,267.0,276.0
21:36:09,3135.0,267.0,276.0
21:36:09,3135.0,267.0,276.0
21:36:09,3130.0,267.0,274.0
21:36:09,3130.0,267.0,274.0
21:36:09,3130.0,267.0,274.0
21:36:09,3130.0,267.0,274.0
21:36:09,3243.0,268.0,273.0
21:36:09,3243.0,268.0,273.0
21:36:09,3243.0,268.0,273.0
21:36:09,3243.0,268.0,273.0
21:36:09,3225.0,267.0,275.0
21:36:09,3225.0,267.0,275.0
21:36:09,3225.0,267.0,275.0
21:36:09,3225.0,267.0,275.0
21:36:09,3059.0,267.0,274.0
21:36:09,3059.0,267.0,274.0
21:36:09,3059.0,267.0,274.0
21:36:09,3059.0,267.0,274.0
21:36:09,3046.0,267.0,275.0
21:36:09,3046.0,267.0,275.0
21:36:09,3046.0,267.0,275.0
21:36:09,3046.0,267.0,275.0
21:36:09,2954.0,266.0,274.0
21:36:09,2954.0,266.0,274.0
21:36:09,2954.0,266.0,274.0
21:36:09,2954.0,266.0,274.0
21:36:09,2970.0,267.0,275.0
21:36:09,2970.0,267.0,275.0
21:36:09,2970.0,267.0,275.0
21:36:09,2970.0,267.0,275.0
21:36:09,2993.0,266.0,274.0
21:36:09,2993.0,266.0,274.0
21:36:09,2993.0,266.0,274.0
21:36:09,2993.0,266.0,274.0
21:36:09,2990.0,266.0,275.0
21:36:09,2990.0,266.0,275.0
21:36:09,2990.0,266.0,275.0
21:36:09,2990.0,266.0,275.0
21:36:09,3006.0,267.0,274.0
21:36:09,3006.0,267.0,274.0
21:36:09,3006.0,267.0,274.0
21:36:09,3006.0,267.0,274.0
21:36:09,3037.0,267.0,274.0
21:36:09,3037.0,267.0,274.0
21:36:09,3037.0,267.0,274.0
21:36:09,3037.0,267.0,274.0
21:36:09,3060.0,267.0,275.0
21:36:09,3060.0,267.0,275.0
21:36:09,3060.0,267.0,275.0
21:36:09,3060.0,267.0,275.0
21:36:09,3056.0,267.0,276.0
21:36:09,3056.0,267.0,276.0
21:36:09,3056.0,267.0,276.0
21:36:09,3056.0,267.0,276.0
21:36:09,3113.0,266.0,276.0
21:36:09,3113.0,266.0,276.0
21:36:09,3113.0,266.0,276.0
21:36:09,3113.0,266.0,276.0
21:36:09,3071.0,266.0,276.0
21:36:09,3071.0,266.0,276.0
21:36:09,3071.0,266.0,276.0
21:36:09,3071.0,266.0,276.0
21:36:09,3107.0,267.0,275.0
21:36:09,3107.0,267.0,275.0
21:36:09,3107.0,267.0,275.0
21:36:10,3107.0,267.0,275.0
21:36:10,3180.0,267.0,274.0
21:36:10,3180.0,267.0,274.0
21:36:10,3180.0,267.0,274.0
21:36:10,3180.0,267.0,274.0
21:36:10,3138.0,266.0,274.0
21:36:10,3138.0,266.0,274.0
21:36:10,3138.0,266.0,274.0
21:36:10,3138.0,266.0,274.0
21:36:10,3167.0,267.0,274.0
21:36:10,3167.0,267.0,274.0
21:36:10,3167.0,267.0,274.0
21:36:10,3167.0,267.0,274.0
21:36:10,3121.0,267.0,275.0
21:36:10,3121.0,267.0,275.0
21:36:10,3121.0,267.0,275.0
21:36:10,3121.0,267.0,275.0
21:36:10,3257.0,267.0,274.0
21:36:10,3257.0,267.0,274.0
21:36:10,3257.0,267.0,274.0
21:36:10,3257.0,267.0,274.0
21:36:10,3300.0,268.0,275.0
21:36:10,3300.0,268.0,275.0
21:36:10,3300.0,268.0,275.0
21:36:10,3300.0,268.0,275.0
21:36:10,3234.0,266.0,274.0
21:36:10,3234.0,266.0,274.0
21:36:10,3234.0,266.0,274.0
21:36:10,3234.0,266.0,274.0
21:36:10,3133.0,267.0,275.0
21:36:10,3133.0,267.0,275.0
21:36:10,3133.0,267.0,275.0
21:36:10,3133.0,267.0,275.0
21:36:10,3119.0,268.0,275.0
21:36:10,3119.0,268.0,275.0
21:36:10,3119.0,268.0,275.0
21:36:10,3119.0,268.0,275.0
21:36:10,3106.0,265.0,275.0
21:36:10,3106.0,265.0,275.0
21:36:10,3106.0,265.0,275.0
21:36:10,3106.0,265.0,275.0
21:36:10,3073.0,268.0,274.0
21:36:10,3073.0,268.0,274.0
21:36:10,3073.0,268.0,274.0
21:36:10,3073.0,268.0,274.0
21:36:10,3205.0,267.0,276.0
21:36:10,3205.0,267.0,276.0
21:36:10,3205.0,267.0,276.0
21:36:10,3205.0,267.0,276.0
21:36:10,4176.0,267.0,274.0
21:36:10,4176.0,267.0,274.0
21:36:10,4176.0,267.0,274.0
21:36:10,4176.0,267.0,274.0
21:36:10,2624.0,267.0,275.0
21:36:10,2624.0,267.0,275.0
21:36:10,2624.0,267.0,275.0
21:36:10,2624.0,267.0,275.0
21:36:10,2641.0,267.0,273.0
21:36:10,2641.0,267.0,273.0
21:36:10,2641.0,267.0,273.0
21:36:10,2641.0,267.0,273.0
21:36:10,3146.0,267.0,273.0
21:36:10,3146.0,267.0,273.0
21:36:10,3146.0,267.0,273.0
21:36:10,3146.0,267.0,273.0
21:36:10,3192.0,266.0,273.0
21:36:10,3192.0,266.0,273.0
21:36:10,3192.0,266.0,273.0
21:36:10,3192.0,266.0,273.0
21:36:10,3226.0,266.0,273.0
21:36:10,3226.0,266.0,273.0
21:36:10,3226.0,266.0,273.0
21:36:10,3226.0,266.0,273.0
21:36:10,3232.0,266.0,273.0
21:36:10,3232.0,266.0,273.0
21:36:10,3232.0,266.0,273.0
21:36:10,3232.0,266.0,273.0
21:36:10,3317.0,266.0,273.0
21:36:10,3317.0,266.0,273.0
21:36:10,3317.0,266.0,273.0
21:36:10,3317.0,266.0,273.0
21:36:10,3402.0,266.0,274.0
21:36:10,3402.0,266.0,274.0
21:36:10,3402.0,266.0,274.0
21:36:10,3402.0,266.0,274.0
21:36:10,3479.0,266.0,275.0
21:36:10,3479.0,266.0,275.0
21:36:10,3479.0,266.0,275.0
21:36:10,3479.0,266.0,275.0
21:36:10,3442.0,266.0,273.0
21:36:10,3442.0,266.0,273.0
21:36:10,3442.0,266.0,273.0
21:36:10,3442.0,266.0,273.0
21:36:10,3495.0,266.0,274.0
21:36:10,3495.0,266.0,274.0
21:36:10,3495.0,266.0,274.0
21:36:10,3495.0,266.0,274.0
21:36:10,3346.0,266.0,274.0
21:36:10,3346.0,266.0,274.0
21:36:10,3346.0,266.0,274.0
21:36:10,3346.0,266.0,274.0
21:36:10,3181.0,266.0,274.0
21:36:10,3181.0,266.0,274.0
21:36:10,3181.0,266.0,274.0
21:36:10,3181.0,266.0,274.0
21:36:10,3088.0,266.0,273.0
21:36:10,3088.0,266.0,273.0
21:36:10,3088.0,266.0,273.0
21:36:10,3088.0,266.0,273.0
21:36:10,3100.0,266.0,272.0
21:36:10,3100.0,266.0,272.0
21:36:10,3100.0,266.0,272.0
21:36:10,3100.0,266.0,272.0
21:36:10,3068.0,265.0,274.0
21:36:10,3068.0,265.0,274.0
21:36:10,3068.0,265.0,274.0
21:36:10,3068.0,265.0,274.0
21:36:10,2995.0,266.0,274.0
21:36:10,2995.0,266.0,274.0
21:36:10,2995.0,266.0,274.0
21:36:10,2995.0,266.0,274.0
21:36:10,2931.0,265.0,273.0
21:36:10,2931.0,265.0,273.0
21:36:10,2931.0,265.0,273.0
21:36:10,2931.0,265.0,273.0
21:36:10,3063.0,266.0,274.0
21:36:10,3063.0,266.0,274.0
21:36:10,3063.0,266.0,274.0
21:36:10,3063.0,266.0,274.0
21:36:10,2974.0,265.0,273.0
21:36:10,2974.0,265.0,273.0
21:36:10,2974.0,265.0,273.0
21:36:10,2974.0,265.0,273.0
21:36:10,2968.0,266.0,274.0
21:36:10,2968.0,266.0,274.0
21:36:10,2968.0,266.0,274.0
21:36:10,2968.0,266.0,274.0
21:36:10,2970.0,265.0,272.0
21:36:10,2970.0,265.0,272.0
21:36:10,2970.0,265.0,272.0
21:36:10,2970.0,265.0,272.0
21:36:10,2955.0,265.0,273.0
21:36:10,2955.0,265.0,273.0
21:36:10,2955.0,265.0,273.0
21:36:10,2955.0,265.0,273.0
21:36:10,2949.0,265.0,273.0
21:36:10,2949.0,265.0,273.0
21:36:10,2949.0,265.0,273.0
21:36:10,2949.0,265.0,273.0
21:36:10,2894.0,266.0,274.0
21:36:10,2894.0,266.0,274.0
21:36:10,2894.0,266.0,274.0
21:36:10,2894.0,266.0,274.0
21:36:10,2918.0,266.0,272.0
21:36:10,2918.0,266.0,272.0
21:36:10,2918.0,266.0,272.0
21:36:10,2918.0,266.0,272.0
21:36:10,2850.0,266.0,272.0
21:36:10,2850.0,266.0,272.0
21:36:10,2850.0,266.0,272.0
21:36:10,2850.0,266.0,272.0
21:36:10,2904.0,265.0,272.0
21:36:10,2904.0,265.0,272.0
21:36:10,2904.0,265.0,272.0
21:36:10,2904.0,265.0,272.0
21:36:10,2885.0,264.0,273.0
21:36:10,2885.0,264.0,273.0
21:36:10,2885.0,264.0,273.0
21:36:10,2885.0,264.0,273.0
21:36:10,2914.0,265.0,271.0
21:36:10,2914.0,265.0,271.0
21:36:10,2914.0,265.0,271.0
21:36:10,2914.0,265.0,271.0
21:36:10,2919.0,265.0,272.0
21:36:10,2919.0,265.0,272.0
21:36:10,2919.0,265.0,272.0
21:36:10,2919.0,265.0,272.0
21:36:10,2918.0,265.0,273.0
21:36:10,2918.0,265.0,273.0
21:36:10,2918.0,265.0,273.0
21:36:10,2918.0,265.0,273.0
21:36:10,2873.0,264.0,274.0
21:36:10,2873.0,264.0,274.0
21:36:10,2873.0,264.0,274.0
21:36:10,2873.0,264.0,274.0
21:36:10,2837.0,265.0,273.0
21:36:10,2837.0,265.0,273.0
21:36:10,2837.0,265.0,273.0
21:36:10,2837.0,265.0,273.0
21:36:10,2685.0,264.0,274.0
21:36:10,2685.0,264.0,274.0
21:36:10,2685.0,264.0,274.0
21:36:10,2685.0,264.0,274.0
21:36:10,2701.0,265.0,274.0
21:36:10,2701.0,265.0,274.0
21:36:10,2701.0,265.0,274.0
21:36:10,2701.0,265.0,274.0
21:36:10,2617.0,266.0,273.0
21:36:10,2617.0,266.0,273.0
21:36:10,2617.0,266.0,273.0
21:36:11,2617.0,266.0,273.0
21:36:11,2583.0,265.0,273.0
21:36:11,2583.0,265.0,273.0
21:36:11,2583.0,265.0,273.0
21:36:11,2583.0,265.0,273.0
21:36:11,3469.0,265.0,274.0
21:36:11,3469.0,265.0,274.0
21:36:11,3469.0,265.0,274.0
21:36:11,3469.0,265.0,274.0
21:36:11,2621.0,265.0,273.0
21:36:11,2621.0,265.0,273.0
21:36:11,2621.0,265.0,273.0
21:36:11,2621.0,265.0,273.0
21:36:11,1977.0,265.0,274.0
21:36:11,1977.0,265.0,274.0
21:36:11,1977.0,265.0,274.0
21:36:11,1977.0,265.0,274.0
21:36:11,2518.0,265.0,273.0
21:36:11,2518.0,265.0,273.0
21:36:11,2518.0,265.0,273.0
21:36:11,2518.0,265.0,273.0
21:36:11,2529.0,265.0,273.0
21:36:11,2529.0,265.0,273.0
21:36:11,2529.0,265.0,273.0
21:36:11,2529.0,265.0,273.0
21:36:11,2625.0,265.0,274.0
21:36:11,2625.0,265.0,274.0
21:36:11,2625.0,265.0,274.0
21:36:11,2625.0,265.0,274.0
21:36:11,2575.0,264.0,274.0
21:36:11,2575.0,264.0,274.0
21:36:11,2575.0,264.0,274.0
21:36:11,2575.0,264.0,274.0
21:36:11,2643.0,265.0,273.0
21:36:11,2643.0,265.0,273.0
21:36:11,2643.0,265.0,273.0
21:36:11,2643.0,265.0,273.0
21:36:11,2657.0,265.0,274.0
21:36:11,2657.0,265.0,274.0
21:36:11,2657.0,265.0,274.0
21:36:11,2657.0,265.0,274.0
21:36:11,2739.0,267.0,273.0
21:36:11,2739.0,267.0,273.0
21:36:11,2739.0,267.0,273.0
21:36:11,2739.0,267.0,273.0
21:36:11,2701.0,265.0,273.0
21:36:11,2701.0,265.0,273.0
21:36:11,2701.0,265.0,273.0
21:36:11,2701.0,265.0,273.0
21:36:11,2694.0,266.0,274.0
21:36:11,2694.0,266.0,274.0
21:36:11,2694.0,266.0,274.0
21:36:11,2694.0,266.0,274.0
21:36:11,2609.0,266.0,273.0
21:36:11,2609.0,266.0,273.0
21:36:11,2609.0,266.0,273.0
21:36:11,2609.0,266.0,273.0
21:36:11,2435.0,266.0,274.0
21:36:11,2435.0,266.0,274.0
21:36:11,2435.0,266.0,274.0
21:36:11,2435.0,266.0,274.0
21:36:11,2310.0,266.0,273.0
21:36:11,2310.0,266.0,273.0
21:36:11,2310.0,266.0,273.0
21:36:11,2310.0,266.0,273.0
21:36:11,2227.0,266.0,275.0
21:36:11,2227.0,266.0,275.0
21:36:11,2227.0,266.0,275.0
21:36:11,2227.0,266.0,275.0
21:36:11,2203.0,265.0,273.0
21:36:11,2203.0,265.0,273.0
21:36:11,2203.0,265.0,273.0
21:36:11,2203.0,265.0,273.0
21:36:11,2127.0,266.0,275.0
21:36:11,2127.0,266.0,275.0
21:36:11,2127.0,266.0,275.0
21:36:11,2127.0,266.0,275.0
21:36:11,2148.0,266.0,273.0
21:36:11,2148.0,266.0,273.0
21:36:11,2148.0,266.0,273.0
21:36:11,2148.0,266.0,273.0
21:36:11,2076.0,267.0,275.0
21:36:11,2076.0,267.0,275.0
21:36:11,2076.0,267.0,275.0
21:36:11,2076.0,267.0,275.0
21:36:11,2031.0,267.0,273.0
21:36:11,2031.0,267.0,273.0
21:36:11,2031.0,267.0,273.0
21:36:11,2031.0,267.0,273.0
21:36:11,2055.0,266.0,274.0
21:36:11,2055.0,266.0,274.0
21:36:11,2055.0,266.0,274.0
21:36:11,2055.0,266.0,274.0
21:36:11,2022.0,265.0,273.0
21:36:11,2022.0,265.0,273.0
21:36:11,2022.0,265.0,273.0
21:36:11,2022.0,265.0,273.0
21:36:11,1988.0,266.0,272.0
21:36:11,1988.0,266.0,272.0
21:36:11,1988.0,266.0,272.0
21:36:11,1988.0,266.0,272.0
21:36:11,1921.0,265.0,274.0
21:36:11,1921.0,265.0,274.0
21:36:11,1921.0,265.0,274.0
21:36:11,1921.0,265.0,274.0
21:36:11,1918.0,266.0,274.0
21:36:11,1918.0,266.0,274.0
21:36:11,1918.0,266.0,274.0
21:36:11,1918.0,266.0,274.0
21:36:11,1868.0,265.0,274.0
21:36:11,1868.0,265.0,274.0
21:36:11,1868.0,265.0,274.0
21:36:11,1868.0,265.0,274.0
21:36:11,1836.0,265.0,273.0
21:36:11,1836.0,265.0,273.0
21:36:11,1836.0,265.0,273.0
21:36:11,1836.0,265.0,273.0
21:36:11,1830.0,266.0,273.0
21:36:11,1830.0,266.0,273.0
21:36:11,1830.0,266.0,273.0
21:36:11,1830.0,266.0,273.0
21:36:11,1780.0,266.0,274.0
21:36:11,1780.0,266.0,274.0
21:36:11,1780.0,266.0,274.0
21:36:11,1780.0,266.0,274.0
21:36:11,1793.0,266.0,273.0
21:36:11,1793.0,266.0,273.0
21:36:11,1793.0,266.0,273.0
21:36:11,1793.0,266.0,273.0
21:36:11,1725.0,267.0,274.0
21:36:11,1725.0,267.0,274.0
21:36:11,1725.0,267.0,274.0
21:36:11,1725.0,267.0,274.0
21:36:11,1748.0,267.0,274.0
21:36:11,1748.0,267.0,274.0
21:36:11,1748.0,267.0,274.0
21:36:11,1748.0,267.0,274.0
21:36:11,1692.0,265.0,275.0
21:36:11,1692.0,265.0,275.0
21:36:11,1692.0,265.0,275.0
21:36:11,1692.0,265.0,275.0
21:36:11,1671.0,266.0,274.0
21:36:11,1671.0,266.0,274.0
21:36:11,1671.0,266.0,274.0
21:36:11,1671.0,266.0,274.0
21:36:11,1587.0,265.0,274.0
21:36:11,1587.0,265.0,274.0
21:36:11,1587.0,265.0,274.0
21:36:11,1587.0,265.0,274.0
21:36:11,1571.0,266.0,274.0
21:36:11,1571.0,266.0,274.0
21:36:11,1571.0,266.0,274.0
21:36:11,1571.0,266.0,274.0
21:36:11,1511.0,265.0,274.0
21:36:11,1511.0,265.0,274.0
21:36:11,1511.0,265.0,274.0
21:36:11,1511.0,265.0,274.0
21:36:11,1483.0,265.0,274.0
21:36:11,1483.0,265.0,274.0
21:36:11,1483.0,265.0,274.0
21:36:11,1483.0,265.0,274.0
21:36:11,1840.0,267.0,274.0
21:36:11,1840.0,267.0,274.0
21:36:11,1840.0,267.0,274.0
21:36:11,1840.0,267.0,274.0
21:36:11,1633.0,267.0,273.0
21:36:11,1633.0,267.0,273.0
21:36:11,1633.0,267.0,273.0
21:36:11,1633.0,267.0,273.0
21:36:11,1020.0,266.0,275.0
21:36:11,1020.0,266.0,275.0
21:36:11,1020.0,266.0,275.0
21:36:11,1020.0,266.0,275.0
21:36:11,1309.0,267.0,276.0
21:36:11,1309.0,267.0,276.0
21:36:11,1309.0,267.0,276.0
21:36:11,1309.0,267.0,276.0
21:36:11,1383.0,266.0,276.0
21:36:11,1383.0,266.0,276.0
21:36:11,1383.0,266.0,276.0
21:36:11,1383.0,266.0,276.0
21:36:11,1310.0,267.0,275.0
21:36:11,1310.0,267.0,275.0
21:36:11,1310.0,267.0,275.0
21:36:11,1310.0,267.0,275.0
21:36:11,1298.0,267.0,276.0
21:36:11,1298.0,267.0,276.0
21:36:11,1298.0,267.0,276.0
21:36:11,1298.0,267.0,276.0
21:36:11,1308.0,266.0,276.0
21:36:11,1308.0,266.0,276.0
21:36:11,1308.0,266.0,276.0
21:36:11,1308.0,266.0,276.0
21:36:11,1279.0,267.0,276.0
21:36:11,1279.0,267.0,276.0
21:36:11,1279.0,267.0,276.0
21:36:11,1279.0,267.0,276.0
21:36:11,1252.0,267.0,275.0
21:36:11,1252.0,267.0,275.0
21:36:11,1252.0,267.0,275.0
21:36:11,1252.0,267.0,275.0
21:36:12,1271.0,267.0,276.0
21:36:12,1271.0,267.0,276.0
21:36:12,1271.0,267.0,276.0
21:36:12,1271.0,267.0,276.0
21:36:12,1235.0,267.0,276.0
21:36:12,1235.0,267.0,276.0
21:36:12,1235.0,267.0,276.0
21:36:12,1235.0,267.0,276.0
21:36:12,1157.0,267.0,275.0
21:36:12,1157.0,267.0,275.0
21:36:12,1157.0,267.0,275.0
21:36:12,1157.0,267.0,275.0
21:36:12,1086.0,267.0,275.0
21:36:12,1086.0,267.0,275.0
21:36:12,1086.0,267.0,275.0
21:36:12,1086.0,267.0,275.0
21:36:12,947.0,267.0,274.0
21:36:12,947.0,267.0,274.0
21:36:12,947.0,267.0,274.0
21:36:12,947.0,267.0,274.0
21:36:12,868.0,266.0,273.0
21:36:12,868.0,266.0,273.0
21:36:12,868.0,266.0,273.0
21:36:12,868.0,266.0,273.0
21:36:12,873.0,266.0,275.0
21:36:12,873.0,266.0,275.0
21:36:12,873.0,266.0,275.0
21:36:12,873.0,266.0,275.0
21:36:12,844.0,266.0,275.0
21:36:12,844.0,266.0,275.0
21:36:12,844.0,266.0,275.0
21:36:12,844.0,266.0,275.0
21:36:12,817.0,267.0,276.0
21:36:12,817.0,267.0,276.0
21:36:12,817.0,267.0,276.0
21:36:12,817.0,267.0,276.0
21:36:12,775.0,267.0,275.0
21:36:12,775.0,267.0,275.0
21:36:12,775.0,267.0,275.0
21:36:12,775.0,267.0,275.0
21:36:12,729.0,266.0,276.0
21:36:12,729.0,266.0,276.0
21:36:12,729.0,266.0,276.0
21:36:12,729.0,266.0,276.0
21:36:12,699.0,266.0,275.0
21:36:12,699.0,266.0,275.0
21:36:12,699.0,266.0,275.0
21:36:12,699.0,266.0,275.0
21:36:12,702.0,266.0,275.0
21:36:12,702.0,266.0,275.0
21:36:12,702.0,266.0,275.0
21:36:12,702.0,266.0,275.0
21:36:12,665.0,268.0,276.0
21:36:12,665.0,268.0,276.0
21:36:12,665.0,268.0,276.0
21:36:12,665.0,268.0,276.0
21:36:12,609.0,267.0,275.0
21:36:12,609.0,267.0,275.0
21:36:12,609.0,267.0,275.0
21:36:12,609.0,267.0,275.0
21:36:12,592.0,267.0,275.0
21:36:12,592.0,267.0,275.0
21:36:12,592.0,267.0,275.0
21:36:12,592.0,267.0,275.0
21:36:12,566.0,268.0,276.0
21:36:12,566.0,268.0,276.0
21:36:12,566.0,268.0,276.0
21:36:12,566.0,268.0,276.0
21:36:12,515.0,266.0,274.0
21:36:12,515.0,266.0,274.0
21:36:12,515.0,266.0,274.0
21:36:12,515.0,266.0,274.0
21:36:12,496.0,267.0,274.0
21:36:12,496.0,267.0,274.0
21:36:12,496.0,267.0,274.0
21:36:12,496.0,267.0,274.0
21:36:12,462.0,267.0,275.0
21:36:12,462.0,267.0,275.0
21:36:12,462.0,267.0,275.0
21:36:12,462.0,267.0,275.0
21:36:12,486.0,268.0,276.0
21:36:12,486.0,268.0,276.0
21:36:12,486.0,268.0,276.0
21:36:12,486.0,268.0,276.0
21:36:12,456.0,268.0,275.0
21:36:12,456.0,268.0,275.0
21:36:12,456.0,268.0,275.0
21:36:12,456.0,268.0,275.0
21:36:12,369.0,267.0,275.0
21:36:12,369.0,267.0,275.0
21:36:12,369.0,267.0,275.0
21:36:12,369.0,267.0,275.0
21:36:12,390.0,268.0,275.0
21:36:12,390.0,268.0,275.0
21:36:12,390.0,268.0,275.0
21:36:12,390.0,268.0,275.0
21:36:12,318.0,268.0,276.0
21:36:12,318.0,268.0,276.0
21:36:12,318.0,268.0,276.0
21:36:12,318.0,268.0,276.0
21:36:12,295.0,267.0,275.0
21:36:12,295.0,267.0,275.0
21:36:12,295.0,267.0,275.0
21:36:12,295.0,267.0,275.0
21:36:12,266.0,267.0,276.0
21:36:12,266.0,267.0,276.0
21:36:12,266.0,267.0,276.0
21:36:12,266.0,267.0,276.0
21:36:12,391.0,267.0,276.0
21:36:12,391.0,267.0,276.0
21:36:12,391.0,267.0,276.0
21:36:12,391.0,267.0,276.0
21:36:12,283.0,268.0,274.0
21:36:12,283.0,268.0,274.0
21:36:12,283.0,268.0,274.0
21:36:12,283.0,268.0,274.0
21:36:12,76.0,267.0,274.0
21:36:12,76.0,267.0,274.0
21:36:12,76.0,267.0,274.0
21:36:12,76.0,267.0,274.0
21:36:12,155.0,266.0,272.0
21:36:12,155.0,266.0,272.0
21:36:12,155.0,266.0,272.0
21:36:12,155.0,266.0,272.0
21:36:12,190.0,267.0,274.0
21:36:12,190.0,267.0,274.0
21:36:12,190.0,267.0,274.0
21:36:12,190.0,267.0,274.0
21:36:12,172.0,268.0,274.0
21:36:12,172.0,268.0,274.0
21:36:12,172.0,268.0,274.0
21:36:12,172.0,268.0,274.0
21:36:12,166.0,267.0,274.0
21:36:12,166.0,267.0,274.0
21:36:12,166.0,267.0,274.0
21:36:12,166.0,267.0,274.0
21:36:12,135.0,267.0,274.0
21:36:12,135.0,267.0,274.0
21:36:12,135.0,267.0,274.0
21:36:12,135.0,267.0,274.0
21:36:12,151.0,268.0,273.0
21:36:12,151.0,268.0,273.0
21:36:12,151.0,268.0,273.0
21:36:12,151.0,268.0,273.0
21:36:12,127.0,267.0,274.0
21:36:12,127.0,267.0,274.0
21:36:12,127.0,267.0,274.0
21:36:12,127.0,267.0,274.0
21:36:12,130.0,267.0,274.0
21:36:12,130.0,267.0,274.0
21:36:12,130.0,267.0,274.0
21:36:12,130.0,267.0,274.0
21:36:12,102.0,267.0,273.0
21:36:12,102.0,267.0,273.0
21:36:12,102.0,267.0,273.0
21:36:12,102.0,267.0,273.0
21:36:12,89.0,267.0,273.0
21:36:12,89.0,267.0,273.0
21:36:12,89.0,267.0,273.0
21:36:12,89.0,267.0,273.0
21:36:12,50.0,266.0,274.0
21:36:12,50.0,266.0,274.0
21:36:12,50.0,266.0,274.0
21:36:12,50.0,266.0,274.0
21:36:12,19.0,266.0,273.0
21:36:12,19.0,266.0,273.0
21:36:12,19.0,266.0,273.0
21:36:12,19.0,266.0,273.0
21:36:12,-7.0,266.0,274.0
21:36:12,-7.0,266.0,274.0
21:36:12,-7.0,266.0,274.0
21:36:12,-7.0,266.0,274.0
21:36:12,-17.0,266.0,274.0
21:36:12,-17.0,266.0,274.0
21:36:12,-17.0,266.0,274.0
21:36:12,-17.0,266.0,274.0
21:36:12,-18.0,266.0,275.0
21:36:12,-18.0,266.0,275.0
21:36:12,-18.0,266.0,275.0
21:36:12,-18.0,266.0,275.0
21:36:12,-33.0,266.0,274.0
21:36:12,-33.0,266.0,274.0
21:36:12,-33.0,266.0,274.0
21:36:12,-33.0,266.0,274.0
21:36:12,-36.0,266.0,273.0
21:36:12,-36.0,266.0,273.0
21:36:12,-36.0,266.0,273.0
21:36:12,-36.0,266.0,273.0
21:36:12,-42.0,266.0,274.0
21:36:12,-42.0,266.0,274.0
21:36:12,-42.0,266.0,274.0
21:36:12,-42.0,266.0,274.0
21:36:12,-52.0,266.0,273.0
21:36:12,-52.0,266.0,273.0
21:36:12,-52.0,266.0,273.0
21:36:12,-52.0,266.0,273.0
21:36:12,-53.0,266.0,274.0
21:36:12,-53.0,266.0,274.0
21:36:12,-53.0,266.0,274.0
21:36:12,-53.0,266.0,274.0
21:36:12,-65.0,265.0,273.0
21:36:13,-65.0,265.0,273.0
21:36:13,-65.0,265.0,273.0
21:36:13,-65.0,265.0,273.0
21:36:13,-77.0,265.0,273.0
21:36:13,-77.0,265.0,273.0
21:36:13,-77.0,265.0,273.0
21:36:13,-77.0,265.0,273.0
21:36:13,-54.0,265.0,274.0
21:36:13,-54.0,265.0,274.0
21:36:13,-54.0,265.0,274.0
21:36:13,-54.0,265.0,274.0
21:36:13,-64.0,265.0,274.0
21:36:13,-64.0,265.0,274.0
21:36:13,-64.0,265.0,274.0
21:36:13,-64.0,265.0,274.0
21:36:13,-67.0,265.0,274.0
21:36:13,-67.0,265.0,274.0
21:36:13,-67.0,265.0,274.0
21:36:13,-67.0,265.0,274.0
21:36:13,-67.0,266.0,275.0
21:36:13,-67.0,266.0,275.0
21:36:13,-67.0,266.0,275.0
21:36:13,-67.0,266.0,275.0
21:36:13,-72.0,265.0,273.0
21:36:13,-72.0,265.0,273.0
21:36:13,-72.0,265.0,273.0
21:36:13,-72.0,265.0,273.0
21:36:13,-39.0,265.0,274.0
21:36:13,-39.0,265.0,274.0
21:36:13,-39.0,265.0,274.0
21:36:13,-39.0,265.0,274.0
21:36:13,-40.0,265.0,274.0
21:36:13,-40.0,265.0,274.0
21:36:13,-40.0,265.0,274.0
21:36:13,-40.0,265.0,274.0
21:36:13,-63.0,265.0,273.0
21:36:13,-63.0,265.0,273.0
21:36:13,-63.0,265.0,273.0
21:36:13,-63.0,265.0,273.0
21:36:13,-46.0,266.0,273.0
21:36:13,-46.0,266.0,273.0
21:36:13,-46.0,266.0,273.0
21:36:13,-46.0,266.0,273.0
21:36:13,-63.0,266.0,274.0
21:36:13,-63.0,266.0,274.0
21:36:13,-63.0,266.0,274.0
21:36:13,-63.0,266.0,274.0
21:36:13,-58.0,266.0,273.0
21:36:13,-58.0,266.0,273.0
21:36:13,-58.0,266.0,273.0
21:36:13,-58.0,266.0,273.0
21:36:13,-30.0,265.0,272.0
21:36:13,-30.0,265.0,272.0
21:36:13,-30.0,265.0,272.0
21:36:13,-30.0,265.0,272.0
21:36:13,21.0,266.0,273.0
21:36:13,21.0,266.0,273.0
21:36:13,21.0,266.0,273.0
21:36:13,21.0,266.0,273.0
21:36:13,17.0,265.0,272.0
21:36:13,17.0,265.0,272.0
21:36:13,17.0,265.0,272.0
21:36:13,17.0,265.0,272.0
21:36:13,-115.0,265.0,272.0
21:36:13,-115.0,265.0,272.0
21:36:13,-115.0,265.0,272.0
21:36:13,-115.0,265.0,272.0
21:36:13,-30.0,265.0,273.0
21:36:13,-30.0,265.0,273.0
21:36:13,-30.0,265.0,273.0
21:36:13,-30.0,265.0,273.0
21:36:13,11.0,266.0,273.0
21:36:13,11.0,266.0,273.0
21:36:13,11.0,266.0,273.0
21:36:13,11.0,266.0,273.0
21:36:13,23.0,266.0,273.0
21:36:13,23.0,266.0,273.0
21:36:13,23.0,266.0,273.0
21:36:13,23.0,266.0,273.0
21:36:13,41.0,265.0,273.0
21:36:13,41.0,265.0,273.0
21:36:13,41.0,265.0,273.0
21:36:13,41.0,265.0,273.0
21:36:13,47.0,266.0,272.0
21:36:13,47.0,266.0,272.0
21:36:13,47.0,266.0,272.0
21:36:13,47.0,266.0,272.0
21:36:13,65.0,265.0,273.0
21:36:13,65.0,265.0,273.0
21:36:13,65.0,265.0,273.0
21:36:13,65.0,265.0,273.0
21:36:13,117.0,265.0,272.0
21:36:13,117.0,265.0,272.0
21:36:13,117.0,265.0,272.0
21:36:13,117.0,265.0,272.0
21:36:13,123.0,265.0,273.0
21:36:13,123.0,265.0,273.0
21:36:13,123.0,265.0,273.0
21:36:13,123.0,265.0,273.0
21:36:13,137.0,265.0,272.0
21:36:13,137.0,265.0,272.0
21:36:13,137.0,265.0,272.0
21:36:13,137.0,265.0,272.0
21:36:13,164.0,264.0,273.0
21:36:13,164.0,264.0,273.0
21:36:13,164.0,264.0,273.0
21:36:13,164.0,264.0,273.0
21:36:13,128.0,264.0,273.0
21:36:13,128.0,264.0,273.0
21:36:13,128.0,264.0,273.0
21:36:13,128.0,264.0,273.0
21:36:13,133.0,265.0,273.0
21:36:13,133.0,265.0,273.0
21:36:13,133.0,265.0,273.0
21:36:13,133.0,265.0,273.0
21:36:13,158.0,266.0,273.0
21:36:13,158.0,266.0,273.0
21:36:13,158.0,266.0,273.0
21:36:13,158.0,266.0,273.0
21:36:13,142.0,265.0,273.0
21:36:13,142.0,265.0,273.0
21:36:13,142.0,265.0,273.0
21:36:13,142.0,265.0,273.0
21:36:13,167.0,265.0,273.0
21:36:13,167.0,265.0,273.0
21:36:13,167.0,265.0,273.0
21:36:13,167.0,265.0,273.0
21:36:13,188.0,265.0,273.0
21:36:13,188.0,265.0,273.0
21:36:13,188.0,265.0,273.0
21:36:13,188.0,265.0,273.0
21:36:13,225.0,266.0,272.0
21:36:13,225.0,266.0,272.0
21:36:13,225.0,266.0,272.0
21:36:13,225.0,266.0,272.0
21:36:13,245.0,266.0,273.0
21:36:13,245.0,266.0,273.0
21:36:13,245.0,266.0,273.0
21:36:13,245.0,266.0,273.0
21:36:13,263.0,265.0,272.0
21:36:13,263.0,265.0,272.0
21:36:13,263.0,265.0,272.0
21:36:13,263.0,265.0,272.0
21:36:13,299.0,265.0,274.0
21:36:13,299.0,265.0,274.0
21:36:13,299.0,265.0,274.0
21:36:13,299.0,265.0,274.0
21:36:13,312.0,266.0,273.0
21:36:13,312.0,266.0,273.0
21:36:13,312.0,266.0,273.0
21:36:13,312.0,266.0,273.0
21:36:13,335.0,266.0,273.0
21:36:13,335.0,266.0,273.0
21:36:13,335.0,266.0,273.0
21:36:13,335.0,266.0,273.0
21:36:13,365.0,266.0,273.0
21:36:13,365.0,266.0,273.0
21:36:13,365.0,266.0,273.0
21:36:13,365.0,266.0,273.0
21:36:13,395.0,265.0,274.0
21:36:13,395.0,265.0,274.0
21:36:13,395.0,265.0,274.0
21:36:13,395.0,265.0,274.0
21:36:13,421.0,266.0,273.0
21:36:13,421.0,266.0,273.0
21:36:13,421.0,266.0,273.0
21:36:13,421.0,266.0,273.0
21:36:13,451.0,265.0,273.0
21:36:13,451.0,265.0,273.0
21:36:13,451.0,265.0,273.0
21:36:13,451.0,265.0,273.0
21:36:13,487.0,265.0,274.0
21:36:13,487.0,265.0,274.0
21:36:13,487.0,265.0,274.0
21:36:13,487.0,265.0,274.0
21:36:13,528.0,266.0,273.0
21:36:13,528.0,266.0,273.0
21:36:13,528.0,266.0,273.0
21:36:13,528.0,266.0,273.0
21:36:13,539.0,265.0,274.0
21:36:13,539.0,265.0,274.0
21:36:13,539.0,265.0,274.0
21:36:13,539.0,265.0,274.0
21:36:13,566.0,265.0,272.0
21:36:13,566.0,265.0,272.0
21:36:13,566.0,265.0,272.0
21:36:13,566.0,265.0,272.0
21:36:13,547.0,265.0,272.0
21:36:13,547.0,265.0,272.0
21:36:13,547.0,265.0,272.0
21:36:13,547.0,265.0,272.0
21:36:13,608.0,265.0,272.0
21:36:13,608.0,265.0,272.0
21:36:13,608.0,265.0,272.0
21:36:13,608.0,265.0,272.0
21:36:13,644.0,266.0,273.0
21:36:13,644.0,266.0,273.0
21:36:13,644.0,266.0,273.0
21:36:13,644.0,266.0,273.0
21:36:13,604.0,267.0,274.0
21:36:13,604.0,267.0,274.0
21:36:14,604.0,267.0,274.0
21:36:14,604.0,267.0,274.0
21:36:14,876.0,265.0,274.0
21:36:14,876.0,265.0,274.0
21:36:14,876.0,265.0,274.0
21:36:14,876.0,265.0,274.0
21:36:14,919.0,266.0,274.0
21:36:14,919.0,266.0,274.0
21:36:14,919.0,266.0,274.0
21:36:14,919.0,266.0,274.0
21:36:14,430.0,266.0,274.0
21:36:14,430.0,266.0,274.0
21:36:14,430.0,266.0,274.0
21:36:14,430.0,266.0,274.0
21:36:14,629.0,266.0,274.0
21:36:14,629.0,266.0,274.0
21:36:14,629.0,266.0,274.0
21:36:14,629.0,266.0,274.0
21:36:14,869.0,267.0,273.0
21:36:14,869.0,267.0,273.0
21:36:14,869.0,267.0,273.0
21:36:14,869.0,267.0,273.0
21:36:14,901.0,266.0,272.0
21:36:14,901.0,266.0,272.0
21:36:14,901.0,266.0,272.0
21:36:14,901.0,266.0,272.0
21:36:14,931.0,265.0,273.0
21:36:14,931.0,265.0,273.0
21:36:14,931.0,265.0,273.0
21:36:14,931.0,265.0,273.0
21:36:14,997.0,264.0,273.0
21:36:14,997.0,264.0,273.0
21:36:14,997.0,264.0,273.0
21:36:14,997.0,264.0,273.0
21:36:14,1073.0,265.0,273.0
21:36:14,1073.0,265.0,273.0
21:36:14,1073.0,265.0,273.0
21:36:14,1073.0,265.0,273.0
21:36:14,1093.0,266.0,274.0
21:36:14,1093.0,266.0,274.0
21:36:14,1093.0,266.0,274.0
21:36:14,1093.0,266.0,274.0
21:36:14,1189.0,265.0,274.0
21:36:14,1189.0,265.0,274.0
21:36:14,1189.0,265.0,274.0
21:36:14,1189.0,265.0,274.0
21:36:14,1228.0,266.0,274.0
21:36:14,1228.0,266.0,274.0
21:36:14,1228.0,266.0,274.0
21:36:14,1228.0,266.0,274.0
21:36:14,1270.0,265.0,274.0
21:36:14,1270.0,265.0,274.0
21:36:14,1270.0,265.0,274.0
21:36:14,1270.0,265.0,274.0
21:36:14,1231.0,267.0,275.0
21:36:14,1231.0,267.0,275.0
21:36:14,1231.0,267.0,275.0
21:36:14,1231.0,267.0,275.0
21:36:14,1171.0,267.0,275.0
21:36:14,1171.0,267.0,275.0
21:36:14,1171.0,267.0,275.0
21:36:14,1171.0,267.0,275.0
21:36:14,1185.0,267.0,275.0
21:36:14,1185.0,267.0,275.0
21:36:14,1185.0,267.0,275.0
21:36:14,1185.0,267.0,275.0
21:36:14,1221.0,267.0,275.0
21:36:14,1221.0,267.0,275.0
21:36:14,1221.0,267.0,275.0
21:36:14,1221.0,267.0,275.0
21:36:14,1211.0,266.0,274.0
21:36:14,1211.0,266.0,274.0
21:36:14,1211.0,266.0,274.0
21:36:14,1211.0,266.0,274.0
21:36:14,1291.0,266.0,273.0
21:36:14,1291.0,266.0,273.0
21:36:14,1291.0,266.0,273.0
21:36:14,1291.0,266.0,273.0
21:36:14,1327.0,265.0,274.0
21:36:14,1327.0,265.0,274.0
21:36:14,1327.0,265.0,274.0
21:36:14,1327.0,265.0,274.0
21:36:14,1310.0,266.0,275.0
21:36:14,1310.0,266.0,275.0
21:36:14,1310.0,266.0,275.0
21:36:14,1310.0,266.0,275.0
21:36:14,1415.0,266.0,274.0
21:36:14,1415.0,266.0,274.0
21:36:14,1415.0,266.0,274.0
21:36:14,1415.0,266.0,274.0
21:36:14,1393.0,266.0,276.0
21:36:14,1393.0,266.0,276.0
21:36:14,1393.0,266.0,276.0
21:36:14,1393.0,266.0,276.0
21:36:14,1452.0,268.0,275.0
21:36:14,1452.0,268.0,275.0
21:36:14,1452.0,268.0,275.0
21:36:14,1452.0,268.0,275.0
21:36:14,1475.0,267.0,276.0
21:36:14,1475.0,267.0,276.0
21:36:14,1475.0,267.0,276.0
21:36:14,1475.0,267.0,276.0
21:36:14,1548.0,268.0,275.0
21:36:14,1548.0,268.0,275.0
21:36:14,1548.0,268.0,275.0
21:36:14,1548.0,268.0,275.0
21:36:14,1546.0,268.0,275.0
21:36:14,1546.0,268.0,275.0
21:36:14,1546.0,268.0,275.0
21:36:14,1546.0,268.0,275.0
21:36:14,1582.0,266.0,274.0
21:36:14,1582.0,266.0,274.0
21:36:14,1582.0,266.0,274.0
21:36:14,1582.0,266.0,274.0
21:36:14,1637.0,268.0,274.0
21:36:14,1637.0,268.0,274.0
21:36:14,1637.0,268.0,274.0
21:36:14,1637.0,268.0,274.0
21:36:14,1672.0,267.0,273.0
21:36:14,1672.0,267.0,273.0
21:36:14,1672.0,267.0,273.0
21:36:14,1672.0,267.0,273.0
21:36:14,1767.0,267.0,275.0
21:36:14,1767.0,267.0,275.0
21:36:14,1767.0,267.0,275.0
21:36:14,1767.0,267.0,275.0
21:36:14,1848.0,267.0,275.0
21:36:14,1848.0,267.0,275.0
21:36:14,1848.0,267.0,275.0
21:36:14,1848.0,267.0,275.0
21:36:14,1861.0,268.0,274.0
21:36:14,1861.0,268.0,274.0
21:36:14,1861.0,268.0,274.0
21:36:14,1861.0,268.0,274.0
21:36:14,1761.0,266.0,276.0
21:36:14,1761.0,266.0,276.0
21:36:14,1761.0,266.0,276.0
21:36:14,1761.0,266.0,276.0
21:36:14,1836.0,267.0,274.0
21:36:14,1836.0,267.0,274.0
21:36:14,1836.0,267.0,274.0
21:36:14,1836.0,267.0,274.0
21:36:14,1839.0,267.0,276.0
21:36:14,1839.0,267.0,276.0
21:36:14,1839.0,267.0,276.0
21:36:14,1839.0,267.0,276.0
21:36:14,1889.0,267.0,274.0
21:36:14,1889.0,267.0,274.0
21:36:14,1889.0,267.0,274.0
21:36:14,1889.0,267.0,274.0
21:36:14,1868.0,267.0,276.0
21:36:14,1868.0,267.0,276.0
21:36:14,1868.0,267.0,276.0
21:36:14,1868.0,267.0,276.0
21:36:14,2778.0,268.0,276.0
21:36:14,2778.0,268.0,276.0
21:36:14,2778.0,268.0,276.0
21:36:14,2778.0,268.0,276.0
21:36:14,1778.0,268.0,276.0
21:36:14,1778.0,268.0,276.0
21:36:14,1778.0,268.0,276.0
21:36:14,1778.0,268.0,276.0
21:36:14,1559.0,267.0,275.0
21:36:14,1559.0,267.0,275.0
21:36:14,1559.0,267.0,275.0
21:36:14,1559.0,267.0,275.0
21:36:14,2058.0,267.0,276.0
21:36:14,2058.0,267.0,276.0
21:36:14,2058.0,267.0,276.0
21:36:14,2058.0,267.0,276.0
21:36:14,2127.0,268.0,275.0
21:36:14,2127.0,268.0,275.0
21:36:14,2127.0,268.0,275.0
21:36:14,2127.0,268.0,275.0
21:36:14,2196.0,267.0,275.0
21:36:14,2196.0,267.0,275.0
21:36:14,2196.0,267.0,275.0
21:36:14,2196.0,267.0,275.0
21:36:14,2300.0,267.0,276.0
21:36:14,2300.0,267.0,276.0
21:36:14,2300.0,267.0,276.0
21:36:14,2300.0,267.0,276.0
21:36:14,2307.0,267.0,276.0
21:36:14,2307.0,267.0,276.0
21:36:14,2307.0,267.0,276.0
21:36:14,2307.0,267.0,276.0
21:36:14,2428.0,267.0,275.0
21:36:14,2428.0,267.0,275.0
21:36:14,2428.0,267.0,275.0
21:36:14,2428.0,267.0,275.0
21:36:14,2490.0,267.0,276.0
21:36:14,2490.0,267.0,276.0
21:36:14,2490.0,267.0,276.0
21:36:14,2490.0,267.0,276.0
21:36:14,2564.0,267.0,276.0
21:36:14,2564.0,267.0,276.0
21:36:14,2564.0,267.0,276.0
21:36:14,2564.0,267.0,276.0
21:36:14,2671.0,268.0,274.0
21:36:14,2671.0,268.0,274.0
21:36:14,2671.0,268.0,274.0
21:36:15,2671.0,268.0,274.0
21:36:15,2629.0,266.0,275.0
21:36:15,2629.0,266.0,275.0
21:36:15,2629.0,266.0,275.0
21:36:15,2629.0,266.0,275.0
21:36:15,2459.0,267.0,276.0
21:36:15,2459.0,267.0,276.0
21:36:15,2459.0,267.0,276.0
21:36:15,2459.0,267.0,276.0
21:36:15,2384.0,267.0,277.0
21:36:15,2384.0,267.0,277.0
21:36:15,2384.0,267.0,277.0
21:36:15,2384.0,267.0,277.0
21:36:15,2393.0,267.0,276.0
21:36:15,2393.0,267.0,276.0
21:36:15,2393.0,267.0,276.0
21:36:15,2393.0,267.0,276.0
21:36:15,2516.0,268.0,276.0
21:36:15,2516.0,268.0,276.0
21:36:15,2516.0,268.0,276.0
21:36:15,2516.0,268.0,276.0
21:36:15,2452.0,267.0,275.0
21:36:15,2452.0,267.0,275.0
21:36:15,2452.0,267.0,275.0
21:36:15,2452.0,267.0,275.0
21:36:15,2449.0,267.0,276.0
21:36:15,2449.0,267.0,276.0
21:36:15,2449.0,267.0,276.0
21:36:15,2449.0,267.0,276.0
21:36:15,2482.0,268.0,275.0
21:36:15,2482.0,268.0,275.0
21:36:15,2482.0,268.0,275.0
21:36:15,2482.0,268.0,275.0
21:36:15,2524.0,268.0,276.0
21:36:15,2524.0,268.0,276.0
21:36:15,2524.0,268.0,276.0
21:36:15,2524.0,268.0,276.0
21:36:15,2554.0,267.0,275.0
21:36:15,2554.0,267.0,275.0
21:36:15,2554.0,267.0,275.0
21:36:15,2554.0,267.0,275.0
21:36:15,2559.0,268.0,275.0
21:36:15,2559.0,268.0,275.0
21:36:15,2559.0,268.0,275.0
21:36:15,2559.0,268.0,275.0
21:36:15,2610.0,269.0,275.0
21:36:15,2610.0,269.0,275.0
21:36:15,2610.0,269.0,275.0
21:36:15,2610.0,269.0,275.0
21:36:15,2639.0,267.0,275.0
21:36:15,2639.0,267.0,275.0
21:36:15,2639.0,267.0,275.0
21:36:15,2639.0,267.0,275.0
21:36:15,2597.0,268.0,275.0
21:36:15,2597.0,268.0,275.0
21:36:15,2597.0,268.0,275.0
21:36:15,2597.0,268.0,275.0
21:36:15,2654.0,267.0,275.0
21:36:15,2654.0,267.0,275.0
21:36:15,2654.0,267.0,275.0
21:36:15,2654.0,267.0,275.0
21:36:15,2629.0,267.0,276.0
21:36:15,2629.0,267.0,276.0
21:36:15,2629.0,267.0,276.0
21:36:15,2629.0,267.0,276.0
21:36:15,2679.0,267.0,274.0
21:36:15,2679.0,267.0,274.0
21:36:15,2679.0,267.0,274.0
21:36:15,2679.0,267.0,274.0
21:36:15,2836.0,267.0,276.0
21:36:15,2836.0,267.0,276.0
21:36:15,2836.0,267.0,276.0
21:36:15,2836.0,267.0,276.0
21:36:15,2823.0,267.0,276.0
21:36:15,2823.0,267.0,276.0
21:36:15,2823.0,267.0,276.0
21:36:15,2823.0,267.0,276.0
21:36:15,2801.0,268.0,275.0
21:36:15,2801.0,268.0,275.0
21:36:15,2801.0,268.0,275.0
21:36:15,2801.0,268.0,275.0
21:36:15,2659.0,266.0,275.0
21:36:15,2659.0,266.0,275.0
21:36:15,2659.0,266.0,275.0
21:36:15,2659.0,266.0,275.0
21:36:15,2720.0,268.0,275.0
21:36:15,2720.0,268.0,275.0
21:36:15,2720.0,268.0,275.0
21:36:15,2720.0,268.0,275.0
21:36:15,2674.0,266.0,274.0
21:36:15,2674.0,266.0,274.0
21:36:15,2674.0,266.0,274.0
21:36:15,2674.0,266.0,274.0
21:36:15,2685.0,268.0,275.0
21:36:15,2685.0,268.0,275.0
21:36:15,2685.0,268.0,275.0
21:36:15,2685.0,268.0,275.0
21:36:15,3079.0,266.0,274.0
21:36:15,3079.0,266.0,274.0
21:36:15,3079.0,266.0,274.0
21:36:15,3079.0,266.0,274.0
21:36:15,3414.0,266.0,275.0
21:36:15,3414.0,266.0,275.0
21:36:15,3414.0,266.0,275.0
21:36:15,3414.0,266.0,275.0
21:36:15,1977.0,268.0,274.0
21:36:15,1977.0,268.0,274.0
21:36:15,1977.0,268.0,274.0
21:36:15,1977.0,268.0,274.0
21:36:15,2456.0,267.0,275.0
21:36:15,2456.0,267.0,275.0
21:36:15,2456.0,267.0,275.0
21:36:15,2456.0,267.0,275.0
21:36:15,2851.0,266.0,275.0
21:36:15,2851.0,266.0,275.0
21:36:15,2851.0,266.0,275.0
21:36:15,2851.0,266.0,275.0
21:36:15,2881.0,268.0,274.0
21:36:15,2881.0,268.0,274.0
21:36:15,2881.0,268.0,274.0
21:36:15,2881.0,268.0,274.0
21:36:15,2922.0,267.0,274.0
21:36:15,2922.0,267.0,274.0
21:36:15,2922.0,267.0,274.0
21:36:15,2922.0,267.0,274.0
21:36:15,2953.0,267.0,274.0
21:36:15,2953.0,267.0,274.0
21:36:15,2953.0,267.0,274.0
21:36:15,2953.0,267.0,274.0
21:36:15,2969.0,266.0,275.0
21:36:15,2969.0,266.0,275.0
21:36:15,2969.0,266.0,275.0
21:36:15,2969.0,266.0,275.0
21:36:15,3093.0,266.0,275.0
21:36:15,3093.0,266.0,275.0
21:36:15,3093.0,266.0,275.0
21:36:15,3093.0,266.0,275.0
21:36:15,3158.0,267.0,274.0
21:36:15,3158.0,267.0,274.0
21:36:15,3158.0,267.0,274.0
21:36:15,3158.0,267.0,274.0
21:36:15,3253.0,267.0,275.0
21:36:15,3253.0,267.0,275.0
21:36:15,3253.0,267.0,275.0
21:36:15,3253.0,267.0,275.0
21:36:15,3210.0,266.0,274.0
21:36:15,3210.0,266.0,274.0
21:36:15,3210.0,266.0,274.0
21:36:15,3210.0,266.0,274.0
21:36:15,3064.0,266.0,273.0
21:36:15,3064.0,266.0,273.0
21:36:15,3064.0,266.0,273.0
21:36:15,3064.0,266.0,273.0
21:36:15,2945.0,266.0,274.0
21:36:15,2945.0,266.0,274.0
21:36:15,2945.0,266.0,274.0
21:36:15,2945.0,266.0,274.0
21:36:15,2837.0,265.0,273.0
21:36:15,2837.0,265.0,273.0
21:36:15,2837.0,265.0,273.0
21:36:15,2837.0,265.0,273.0
21:36:15,2862.0,267.0,273.0
21:36:15,2862.0,267.0,273.0
21:36:15,2862.0,267.0,273.0
21:36:15,2862.0,267.0,273.0
21:36:15,2737.0,265.0,273.0
21:36:15,2737.0,265.0,273.0
21:36:15,2737.0,265.0,273.0
21:36:15,2737.0,265.0,273.0
21:36:15,2768.0,266.0,274.0
21:36:15,2768.0,266.0,274.0
21:36:15,2768.0,266.0,274.0
21:36:15,2768.0,266.0,274.0
21:36:15,2746.0,267.0,273.0
21:36:15,2746.0,267.0,273.0
21:36:15,2746.0,267.0,273.0
21:36:15,2746.0,267.0,273.0
21:36:15,2779.0,266.0,273.0
21:36:15,2779.0,266.0,273.0
21:36:15,2779.0,266.0,273.0
21:36:15,2779.0,266.0,273.0
21:36:15,2806.0,264.0,274.0
21:36:15,2806.0,264.0,274.0
21:36:15,2806.0,264.0,274.0
21:36:15,2806.0,264.0,274.0
21:36:15,2784.0,265.0,272.0
21:36:15,2784.0,265.0,272.0
21:36:15,2784.0,265.0,272.0
21:36:15,2784.0,265.0,272.0
21:36:15,2778.0,265.0,274.0
21:36:15,2778.0,265.0,274.0
21:36:15,2778.0,265.0,274.0
21:36:15,2778.0,265.0,274.0
21:36:15,2707.0,265.0,273.0
21:36:15,2707.0,265.0,273.0
21:36:15,2707.0,265.0,273.0
21:36:15,2707.0,265.0,273.0
21:36:15,2802.0,264.0,273.0
21:36:15,2802.0,264.0,273.0
21:36:15,2802.0,264.0,273.0
21:36:16,2802.0,264.0,273.0
21:36:16,2795.0,265.0,274.0
21:36:16,2795.0,265.0,274.0
21:36:16,2795.0,265.0,274.0
21:36:16,2795.0,265.0,274.0
21:36:16,2719.0,267.0,273.0
21:36:16,2719.0,267.0,273.0
21:36:16,2719.0,267.0,273.0
21:36:16,2719.0,267.0,273.0
21:36:16,2729.0,265.0,273.0
21:36:16,2729.0,265.0,273.0
21:36:16,2729.0,265.0,273.0
21:36:16,2729.0,265.0,273.0
21:36:16,2760.0,266.0,272.0
21:36:16,2760.0,266.0,272.0
21:36:16,2760.0,266.0,272.0
21:36:16,2760.0,266.0,272.0
21:36:16,2731.0,265.0,274.0
21:36:16,2731.0,265.0,274.0
21:36:16,2731.0,265.0,274.0
21:36:16,2731.0,265.0,274.0
21:36:16,2768.0,264.0,272.0
21:36:16,2768.0,264.0,272.0
21:36:16,2768.0,264.0,272.0
21:36:16,2768.0,264.0,272.0
21:36:16,2870.0,264.0,273.0
21:36:16,2870.0,264.0,273.0
21:36:16,2870.0,264.0,273.0
21:36:16,2870.0,264.0,273.0
21:36:16,2756.0,264.0,273.0
21:36:16,2756.0,264.0,273.0
21:36:16,2756.0,264.0,273.0
21:36:16,2756.0,264.0,273.0
21:36:16,2644.0,264.0,271.0
21:36:16,2644.0,264.0,271.0
21:36:16,2644.0,264.0,271.0
21:36:16,2644.0,264.0,271.0
21:36:16,2616.0,264.0,273.0
21:36:16,2616.0,264.0,273.0
21:36:16,2616.0,264.0,273.0
21:36:16,2616.0,264.0,273.0
21:36:16,2577.0,264.0,272.0
21:36:16,2577.0,264.0,272.0
21:36:16,2577.0,264.0,272.0
21:36:16,2577.0,264.0,272.0
21:36:16,2544.0,264.0,273.0
21:36:16,2544.0,264.0,273.0
21:36:16,2544.0,264.0,273.0
21:36:16,2544.0,264.0,273.0
21:36:16,2500.0,264.0,273.0
21:36:16,2500.0,264.0,273.0
21:36:16,2500.0,264.0,273.0
21:36:16,2500.0,264.0,273.0
21:36:16,3529.0,264.0,273.0
21:36:16,3529.0,264.0,273.0
21:36:16,3529.0,264.0,273.0
21:36:16,3529.0,264.0,273.0
21:36:16,2475.0,265.0,272.0
21:36:16,2475.0,265.0,272.0
21:36:16,2475.0,265.0,272.0
21:36:16,2475.0,265.0,272.0
21:36:16,1879.0,264.0,273.0
21:36:16,1879.0,264.0,273.0
21:36:16,1879.0,264.0,273.0
21:36:16,1879.0,264.0,273.0
21:36:16,2514.0,265.0,273.0
21:36:16,2514.0,265.0,273.0
21:36:16,2514.0,265.0,273.0
21:36:16,2514.0,265.0,273.0
21:36:16,2580.0,264.0,273.0
21:36:16,2580.0,264.0,273.0
21:36:16,2580.0,264.0,273.0
21:36:16,2580.0,264.0,273.0
21:36:16,2615.0,265.0,273.0
21:36:16,2615.0,265.0,273.0
21:36:16,2615.0,265.0,273.0
21:36:16,2615.0,265.0,273.0
21:36:16,2573.0,264.0,273.0
21:36:16,2573.0,264.0,273.0
21:36:16,2573.0,264.0,273.0
21:36:16,2573.0,264.0,273.0
21:36:16,2574.0,263.0,273.0
21:36:16,2574.0,263.0,273.0
21:36:16,2574.0,263.0,273.0
21:36:16,2574.0,263.0,273.0
21:36:16,2662.0,264.0,273.0
21:36:16,2662.0,264.0,273.0
21:36:16,2662.0,264.0,273.0
21:36:16,2662.0,264.0,273.0
21:36:16,2703.0,265.0,273.0
21:36:16,2703.0,265.0,273.0
21:36:16,2703.0,265.0,273.0
21:36:16,2703.0,265.0,273.0
21:36:16,2747.0,265.0,274.0
21:36:16,2747.0,265.0,274.0
21:36:16,2747.0,265.0,274.0
21:36:16,2747.0,265.0,274.0
21:36:16,2665.0,265.0,273.0
21:36:16,2665.0,265.0,273.0
21:36:16,2665.0,265.0,273.0
21:36:16,2665.0,265.0,273.0
21:36:16,2648.0,265.0,273.0
21:36:16,2648.0,265.0,273.0
21:36:16,2648.0,265.0,273.0
21:36:16,2648.0,265.0,273.0
21:36:16,2451.0,265.0,272.0
21:36:16,2451.0,265.0,272.0
21:36:16,2451.0,265.0,272.0
21:36:16,2451.0,265.0,272.0
21:36:16,2327.0,265.0,272.0
21:36:16,2327.0,265.0,272.0
21:36:16,2327.0,265.0,272.0
21:36:16,2327.0,265.0,272.0
21:36:16,2286.0,265.0,273.0
21:36:16,2286.0,265.0,273.0
21:36:16,2286.0,265.0,273.0
21:36:16,2286.0,265.0,273.0
21:36:16,2201.0,266.0,273.0
21:36:16,2201.0,266.0,273.0
21:36:16,2201.0,266.0,273.0
21:36:16,2201.0,266.0,273.0
21:36:16,2228.0,266.0,274.0
21:36:16,2228.0,266.0,274.0
21:36:16,2228.0,266.0,274.0
21:36:16,2228.0,266.0,274.0
21:36:16,2152.0,265.0,273.0
21:36:16,2152.0,265.0,273.0
21:36:16,2152.0,265.0,273.0
21:36:16,2152.0,265.0,273.0
21:36:16,2156.0,265.0,274.0
21:36:16,2156.0,265.0,274.0
21:36:16,2156.0,265.0,274.0
21:36:16,2156.0,265.0,274.0
21:36:16,2150.0,266.0,273.0
21:36:16,2150.0,266.0,273.0
21:36:16,2150.0,266.0,273.0
21:36:16,2150.0,266.0,273.0
21:36:16,2121.0,264.0,274.0
21:36:16,2121.0,264.0,274.0
21:36:16,2121.0,264.0,274.0
21:36:16,2121.0,264.0,274.0
21:36:16,2105.0,267.0,274.0
21:36:16,2105.0,267.0,274.0
21:36:16,2105.0,267.0,274.0
21:36:16,2105.0,267.0,274.0
21:36:16,2120.0,265.0,274.0
21:36:16,2120.0,265.0,274.0
21:36:16,2120.0,265.0,274.0
21:36:16,2120.0,265.0,274.0
21:36:16,2108.0,265.0,274.0
21:36:16,2108.0,265.0,274.0
21:36:16,2108.0,265.0,274.0
21:36:16,2108.0,265.0,274.0
21:36:16,2058.0,266.0,273.0
21:36:16,2058.0,266.0,273.0
21:36:16,2058.0,266.0,273.0
21:36:16,2058.0,266.0,273.0
21:36:16,1941.0,266.0,273.0
21:36:16,1941.0,266.0,273.0
21:36:16,1941.0,266.0,273.0
21:36:16,1941.0,266.0,273.0
21:36:16,1958.0,265.0,273.0
21:36:16,1958.0,265.0,273.0
21:36:16,1958.0,265.0,273.0
21:36:16,1958.0,265.0,273.0
21:36:16,1925.0,265.0,273.0
21:36:16,1925.0,265.0,273.0
21:36:16,1925.0,265.0,273.0
21:36:16,1925.0,265.0,273.0
21:36:16,1905.0,265.0,273.0
21:36:16,1905.0,265.0,273.0
21:36:16,1905.0,265.0,273.0
21:36:16,1905.0,265.0,273.0
21:36:16,1906.0,265.0,273.0
21:36:16,1906.0,265.0,273.0
21:36:16,1906.0,265.0,273.0
21:36:16,1906.0,265.0,273.0
21:36:16,1962.0,266.0,272.0
21:36:16,1962.0,266.0,272.0
21:36:16,1962.0,266.0,272.0
21:36:16,1962.0,266.0,272.0
21:36:16,1907.0,266.0,273.0
21:36:16,1907.0,266.0,273.0
21:36:16,1907.0,266.0,273.0
21:36:16,1907.0,266.0,273.0
21:36:16,1894.0,266.0,273.0
21:36:16,1894.0,266.0,273.0
21:36:16,1894.0,266.0,273.0
21:36:16,1894.0,266.0,273.0
21:36:16,1765.0,267.0,273.0
21:36:16,1765.0,267.0,273.0
21:36:16,1765.0,267.0,273.0
21:36:16,1765.0,267.0,273.0
21:36:16,1750.0,266.0,274.0
21:36:16,1750.0,266.0,274.0
21:36:16,1750.0,266.0,274.0
21:36:16,1750.0,266.0,274.0
21:36:16,1709.0,267.0,275.0
21:36:16,1709.0,267.0,275.0
21:36:16,1709.0,267.0,275.0
21:36:16,1709.0,267.0,275.0
21:36:17,1649.0,266.0,274.0
21:36:17,1649.0,266.0,274.0
21:36:17,1649.0,266.0,274.0
21:36:17,1649.0,266.0,274.0
21:36:17,1697.0,267.0,275.0
21:36:17,1697.0,267.0,275.0
21:36:17,1697.0,267.0,275.0
21:36:17,1697.0,267.0,275.0
21:36:17,2228.0,266.0,274.0
21:36:17,2228.0,266.0,274.0
21:36:17,2228.0,266.0,274.0
21:36:17,2228.0,266.0,274.0
21:36:17,1075.0,266.0,275.0
21:36:17,1075.0,266.0,275.0
21:36:17,1075.0,266.0,275.0
21:36:17,1075.0,266.0,275.0
21:36:17,1269.0,267.0,275.0
21:36:17,1269.0,267.0,275.0
21:36:17,1269.0,267.0,275.0
21:36:17,1269.0,267.0,275.0
21:36:17,1523.0,265.0,275.0
21:36:17,1523.0,265.0,275.0
21:36:17,1523.0,265.0,275.0
21:36:17,1523.0,265.0,275.0
21:36:17,1571.0,266.0,273.0
21:36:17,1571.0,266.0,273.0
21:36:17,1571.0,266.0,273.0
21:36:17,1571.0,266.0,273.0
21:36:17,1451.0,268.0,275.0
21:36:17,1451.0,268.0,275.0
21:36:17,1451.0,268.0,275.0
21:36:17,1451.0,268.0,275.0
21:36:17,1530.0,267.0,274.0
21:36:17,1530.0,267.0,274.0
21:36:17,1530.0,267.0,274.0
21:36:17,1530.0,267.0,274.0
21:36:17,1465.0,266.0,274.0
21:36:17,1465.0,266.0,274.0
21:36:17,1465.0,266.0,274.0
21:36:17,1465.0,266.0,274.0
21:36:17,1505.0,267.0,275.0
21:36:17,1505.0,267.0,275.0
21:36:17,1505.0,267.0,275.0
21:36:17,1505.0,267.0,275.0
21:36:17,1516.0,267.0,274.0
21:36:17,1516.0,267.0,274.0
21:36:17,1516.0,267.0,274.0
21:36:17,1516.0,267.0,274.0
21:36:17,1487.0,267.0,275.0
21:36:17,1487.0,267.0,275.0
21:36:17,1487.0,267.0,275.0
21:36:17,1487.0,267.0,275.0
21:36:17,1423.0,267.0,274.0
21:36:17,1423.0,267.0,274.0
21:36:17,1423.0,267.0,274.0
21:36:17,1423.0,267.0,274.0
21:36:17,1402.0,266.0,275.0
21:36:17,1402.0,266.0,275.0
21:36:17,1402.0,266.0,275.0
21:36:17,1402.0,266.0,275.0
21:36:17,1216.0,267.0,274.0
21:36:17,1216.0,267.0,274.0
21:36:17,1216.0,267.0,274.0
21:36:17,1216.0,267.0,274.0
21:36:17,1229.0,267.0,274.0
21:36:17,1229.0,267.0,274.0
21:36:17,1229.0,267.0,274.0
21:36:17,1229.0,267.0,274.0
21:36:17,1072.0,267.0,273.0
21:36:17,1072.0,267.0,273.0
21:36:17,1072.0,267.0,273.0
21:36:17,1072.0,267.0,273.0
21:36:17,1085.0,266.0,274.0
21:36:17,1085.0,266.0,274.0
21:36:17,1085.0,266.0,274.0
21:36:17,1085.0,266.0,274.0
21:36:17,1063.0,266.0,274.0
21:36:17,1063.0,266.0,274.0
21:36:17,1063.0,266.0,274.0
21:36:17,1063.0,266.0,274.0
21:36:17,1020.0,266.0,274.0
21:36:17,1020.0,266.0,274.0
21:36:17,1020.0,266.0,274.0
21:36:17,1020.0,266.0,274.0
21:36:17,1001.0,267.0,274.0
21:36:17,1001.0,267.0,274.0
21:36:17,1001.0,267.0,274.0
21:36:17,1001.0,267.0,274.0
21:36:17,944.0,266.0,274.0
21:36:17,944.0,266.0,274.0
21:36:17,944.0,266.0,274.0
21:36:17,944.0,266.0,274.0
21:36:17,913.0,265.0,274.0
21:36:17,913.0,265.0,274.0
21:36:17,913.0,265.0,274.0
21:36:17,913.0,265.0,274.0
21:36:17,893.0,266.0,275.0
21:36:17,893.0,266.0,275.0
21:36:17,893.0,266.0,275.0
21:36:17,893.0,266.0,275.0
21:36:17,847.0,266.0,274.0
21:36:17,847.0,266.0,274.0
21:36:17,847.0,266.0,274.0
21:36:17,847.0,266.0,274.0
21:36:17,798.0,266.0,275.0
21:36:17,798.0,266.0,275.0
21:36:17,798.0,266.0,275.0
21:36:17,798.0,266.0,275.0
21:36:17,789.0,267.0,276.0
21:36:17,789.0,267.0,276.0
21:36:17,789.0,267.0,276.0
21:36:17,789.0,267.0,276.0
21:36:17,780.0,266.0,275.0
21:36:17,780.0,266.0,275.0
21:36:17,780.0,266.0,275.0
21:36:17,780.0,266.0,275.0
21:36:17,705.0,266.0,276.0
21:36:17,705.0,266.0,276.0
21:36:17,705.0,266.0,276.0
21:36:17,705.0,266.0,276.0
21:36:17,704.0,267.0,276.0
21:36:17,704.0,267.0,276.0
21:36:17,704.0,267.0,276.0
21:36:17,704.0,267.0,276.0
21:36:17,688.0,267.0,275.0
21:36:17,688.0,267.0,275.0
21:36:17,688.0,267.0,275.0
21:36:17,688.0,267.0,275.0
21:36:17,676.0,266.0,275.0
21:36:17,676.0,266.0,275.0
21:36:17,676.0,266.0,275.0
21:36:17,676.0,266.0,275.0
21:36:17,656.0,268.0,274.0
21:36:17,656.0,268.0,274.0
21:36:17,656.0,268.0,274.0
21:36:17,656.0,268.0,274.0
21:36:17,578.0,267.0,274.0
21:36:17,578.0,267.0,274.0
21:36:17,578.0,267.0,274.0
21:36:17,578.0,267.0,274.0
21:36:17,541.0,267.0,275.0
21:36:17,541.0,267.0,275.0
21:36:17,541.0,267.0,275.0
21:36:17,541.0,267.0,275.0
21:36:17,508.0,266.0,276.0
21:36:17,508.0,266.0,276.0
21:36:17,508.0,266.0,276.0
21:36:17,508.0,266.0,276.0
21:36:17,484.0,268.0,275.0
21:36:17,484.0,268.0,275.0
21:36:17,484.0,268.0,275.0
21:36:17,484.0,268.0,275.0
21:36:17,465.0,267.0,274.0
21:36:17,465.0,267.0,274.0
21:36:17,465.0,267.0,274.0
21:36:17,465.0,267.0,274.0
21:36:17,732.0,267.0,275.0
21:36:17,732.0,267.0,275.0
21:36:17,732.0,267.0,275.0
21:36:17,732.0,267.0,275.0
21:36:17,311.0,267.0,274.0
21:36:17,311.0,267.0,274.0
21:36:17,311.0,267.0,274.0
21:36:17,311.0,267.0,274.0
21:36:17,218.0,268.0,275.0
21:36:17,218.0,268.0,275.0
21:36:17,218.0,268.0,275.0
21:36:17,218.0,268.0,275.0
21:36:17,382.0,267.0,274.0
21:36:17,382.0,267.0,274.0
21:36:17,382.0,267.0,274.0
21:36:17,382.0,267.0,274.0
21:36:17,364.0,267.0,275.0
21:36:17,364.0,267.0,275.0
21:36:17,364.0,267.0,275.0
21:36:17,364.0,267.0,275.0
21:36:17,327.0,268.0,274.0
21:36:17,327.0,268.0,274.0
21:36:17,327.0,268.0,274.0
21:36:17,327.0,268.0,274.0
21:36:17,317.0,267.0,275.0
21:36:17,317.0,267.0,275.0
21:36:17,317.0,267.0,275.0
21:36:17,317.0,267.0,275.0
21:36:17,301.0,266.0,274.0
21:36:17,301.0,266.0,274.0
21:36:17,301.0,266.0,274.0
21:36:17,301.0,266.0,274.0
21:36:17,287.0,267.0,275.0
21:36:17,287.0,267.0,275.0
21:36:17,287.0,267.0,275.0
21:36:17,287.0,267.0,275.0
21:36:17,285.0,265.0,274.0
21:36:17,285.0,265.0,274.0
21:36:17,285.0,265.0,274.0
21:36:17,285.0,265.0,274.0
21:36:17,275.0,267.0,275.0
21:36:17,275.0,267.0,275.0
21:36:17,275.0,267.0,275.0
21:36:17,275.0,267.0,275.0
21:36:17,261.0,267.0,275.0
21:36:18,261.0,267.0,275.0
21:36:18,261.0,267.0,275.0
21:36:18,261.0,267.0,275.0
21:36:18,215.0,266.0,275.0
21:36:18,215.0,266.0,275.0
21:36:18,215.0,266.0,275.0
21:36:18,215.0,266.0,275.0
21:36:18,169.0,267.0,274.0
21:36:18,169.0,267.0,274.0
21:36:18,169.0,267.0,274.0
21:36:18,169.0,267.0,274.0
21:36:18,128.0,268.0,275.0
21:36:18,128.0,268.0,275.0
21:36:18,128.0,268.0,275.0
21:36:18,128.0,268.0,275.0
21:36:18,106.0,267.0,275.0
21:36:18,106.0,267.0,275.0
21:36:18,106.0,267.0,275.0
21:36:18,106.0,267.0,275.0
21:36:18,87.0,267.0,273.0
21:36:18,87.0,267.0,273.0
21:36:18,87.0,267.0,273.0
21:36:18,87.0,267.0,273.0
21:36:18,67.0,267.0,276.0
21:36:18,67.0,267.0,276.0
21:36:18,67.0,267.0,276.0
21:36:18,67.0,267.0,276.0
21:36:18,72.0,267.0,273.0
21:36:18,72.0,267.0,273.0
21:36:18,72.0,267.0,273.0
21:36:18,72.0,267.0,273.0
21:36:18,41.0,267.0,273.0
21:36:18,41.0,267.0,273.0
21:36:18,41.0,267.0,273.0
21:36:18,41.0,267.0,273.0
21:36:18,32.0,266.0,273.0
21:36:18,32.0,266.0,273.0
21:36:18,32.0,266.0,273.0
21:36:18,32.0,266.0,273.0
21:36:18,28.0,266.0,273.0
21:36:18,28.0,266.0,273.0
21:36:18,28.0,266.0,273.0
21:36:18,28.0,266.0,273.0
21:36:18,21.0,267.0,274.0
21:36:18,21.0,267.0,274.0
21:36:18,21.0,267.0,274.0
21:36:18,21.0,267.0,274.0
21:36:18,12.0,267.0,273.0
21:36:18,12.0,267.0,273.0
21:36:18,12.0,267.0,273.0
21:36:18,12.0,267.0,273.0
21:36:18,-6.0,266.0,275.0
21:36:18,-6.0,266.0,275.0
21:36:18,-6.0,266.0,275.0
21:36:18,-6.0,266.0,275.0
21:36:18,-16.0,267.0,276.0
21:36:18,-16.0,267.0,276.0
21:36:18,-16.0,267.0,276.0
21:36:18,-16.0,267.0,276.0
21:36:18,-14.0,266.0,275.0
21:36:18,-14.0,266.0,275.0
21:36:18,-14.0,266.0,275.0
21:36:18,-14.0,266.0,275.0
21:36:18,-13.0,267.0,273.0
21:36:18,-13.0,267.0,273.0
21:36:18,-13.0,267.0,273.0
21:36:18,-13.0,267.0,273.0
21:36:18,-30.0,268.0,274.0
21:36:18,-30.0,268.0,274.0
21:36:18,-30.0,268.0,274.0
21:36:18,-30.0,268.0,274.0
21:36:18,-43.0,267.0,273.0
21:36:18,-43.0,267.0,273.0
21:36:18,-43.0,267.0,273.0
21:36:18,-43.0,267.0,273.0
21:36:18,-34.0,267.0,273.0
21:36:18,-34.0,267.0,273.0
21:36:18,-34.0,267.0,273.0
21:36:18,-34.0,267.0,273.0
21:36:18,-29.0,267.0,272.0
21:36:18,-29.0,267.0,272.0
21:36:18,-29.0,267.0,272.0
21:36:18,-29.0,267.0,272.0
21:36:18,-41.0,267.0,274.0
21:36:18,-41.0,267.0,274.0
21:36:18,-41.0,267.0,274.0
21:36:18,-41.0,267.0,274.0
21:36:18,-42.0,265.0,274.0
21:36:18,-42.0,265.0,274.0
21:36:18,-42.0,265.0,274.0
21:36:18,-42.0,265.0,274.0
21:36:18,-59.0,266.0,273.0
21:36:18,-59.0,266.0,273.0
21:36:18,-59.0,266.0,273.0
21:36:18,-59.0,266.0,273.0
21:36:18,-64.0,266.0,273.0
21:36:18,-64.0,266.0,273.0
21:36:18,-64.0,266.0,273.0
21:36:18,-64.0,266.0,273.0
21:36:18,-66.0,265.0,273.0
21:36:18,-66.0,265.0,273.0
21:36:18,-66.0,265.0,273.0
21:36:18,-66.0,265.0,273.0
21:36:18,-61.0,266.0,273.0
21:36:18,-61.0,266.0,273.0
21:36:18,-61.0,266.0,273.0
21:36:18,-61.0,266.0,273.0
21:36:18,-47.0,265.0,272.0
21:36:18,-47.0,265.0,272.0
21:36:18,-47.0,265.0,272.0
21:36:18,-47.0,265.0,272.0
21:36:18,48.0,264.0,272.0
21:36:18,48.0,264.0,272.0
21:36:18,48.0,264.0,272.0
21:36:18,48.0,264.0,272.0
21:36:18,-100.0,266.0,273.0
21:36:18,-100.0,266.0,273.0
21:36:18,-100.0,266.0,273.0
21:36:18,-100.0,266.0,273.0
21:36:18,-103.0,265.0,273.0
21:36:18,-103.0,265.0,273.0
21:36:18,-103.0,265.0,273.0
21:36:18,-103.0,265.0,273.0
21:36:18,-47.0,265.0,274.0
21:36:18,-47.0,265.0,274.0
21:36:18,-47.0,265.0,274.0
21:36:18,-47.0,265.0,274.0
21:36:18,-46.0,265.0,272.0
21:36:18,-46.0,265.0,272.0
21:36:18,-46.0,265.0,272.0
21:36:18,-46.0,265.0,272.0
21:36:18,-27.0,265.0,273.0
21:36:18,-27.0,265.0,273.0
21:36:18,-27.0,265.0,273.0
21:36:18,-27.0,265.0,273.0
21:36:18,-20.0,265.0,274.0
21:36:18,-20.0,265.0,274.0
21:36:18,-20.0,265.0,274.0
21:36:18,-20.0,265.0,274.0
21:36:18,-9.0,266.0,273.0
21:36:18,-9.0,266.0,273.0
21:36:18,-9.0,266.0,273.0
21:36:18,-9.0,266.0,273.0
21:36:18,6.0,265.0,273.0
21:36:18,6.0,265.0,273.0
21:36:18,6.0,265.0,273.0
21:36:18,6.0,265.0,273.0
21:36:18,8.0,265.0,273.0
21:36:18,8.0,265.0,273.0
21:36:18,8.0,265.0,273.0
21:36:18,8.0,265.0,273.0
21:36:18,39.0,264.0,273.0
21:36:18,39.0,264.0,273.0
21:36:18,39.0,264.0,273.0
21:36:18,39.0,264.0,273.0
21:36:18,42.0,265.0,272.0
21:36:18,42.0,265.0,272.0
21:36:18,42.0,265.0,272.0
21:36:18,42.0,265.0,272.0
21:36:18,47.0,264.0,273.0
21:36:18,47.0,264.0,273.0
21:36:18,47.0,264.0,273.0
21:36:18,47.0,264.0,273.0
21:36:18,31.0,265.0,271.0
21:36:18,31.0,265.0,271.0
21:36:18,31.0,265.0,271.0
21:36:18,31.0,265.0,271.0
21:36:18,44.0,265.0,272.0
21:36:18,44.0,265.0,272.0
21:36:18,44.0,265.0,272.0
21:36:18,44.0,265.0,272.0
21:36:18,31.0,265.0,271.0
21:36:18,31.0,265.0,271.0
21:36:18,31.0,265.0,271.0
21:36:18,31.0,265.0,271.0
21:36:18,37.0,264.0,272.0
21:36:18,37.0,264.0,272.0
21:36:18,37.0,264.0,272.0
21:36:18,37.0,264.0,272.0
21:36:18,47.0,265.0,272.0
21:36:18,47.0,265.0,272.0
21:36:18,47.0,265.0,272.0
21:36:18,47.0,265.0,272.0
21:36:18,81.0,264.0,271.0
21:36:18,81.0,264.0,271.0
21:36:18,81.0,264.0,271.0
21:36:18,81.0,264.0,271.0
21:36:18,79.0,264.0,272.0
21:36:18,79.0,264.0,272.0
21:36:18,79.0,264.0,272.0
21:36:18,79.0,264.0,272.0
21:36:18,108.0,263.0,273.0
21:36:18,108.0,263.0,273.0
21:36:18,108.0,263.0,273.0
21:36:18,108.0,263.0,273.0
21:36:18,109.0,264.0,272.0
21:36:18,109.0,264.0,272.0
21:36:18,109.0,264.0,272.0
21:36:18,109.0,264.0,272.0
21:36:18,143.0,264.0,272.0
21:36:18,143.0,264.0,272.0
21:36:19,143.0,264.0,272.0
21:36:19,143.0,264.0,272.0
21:36:19,164.0,264.0,273.0
21:36:19,164.0,264.0,273.0
21:36:19,164.0,264.0,273.0
21:36:19,164.0,264.0,273.0
21:36:19,177.0,264.0,273.0
21:36:19,177.0,264.0,273.0
21:36:19,177.0,264.0,273.0
21:36:19,177.0,264.0,273.0
21:36:19,193.0,264.0,273.0
21:36:19,193.0,264.0,273.0
21:36:19,193.0,264.0,273.0
21:36:19,193.0,264.0,273.0
21:36:19,209.0,264.0,273.0
21:36:19,209.0,264.0,273.0
21:36:19,209.0,264.0,273.0
21:36:19,209.0,264.0,273.0
21:36:19,236.0,264.0,273.0
21:36:19,236.0,264.0,273.0
21:36:19,236.0,264.0,273.0
21:36:19,236.0,264.0,273.0
21:36:19,232.0,264.0,274.0
21:36:19,232.0,264.0,274.0
21:36:19,232.0,264.0,274.0
21:36:19,232.0,264.0,274.0
21:36:19,277.0,263.0,272.0
21:36:19,277.0,263.0,272.0
21:36:19,277.0,263.0,272.0
21:36:19,277.0,263.0,272.0
21:36:19,314.0,265.0,273.0
21:36:19,314.0,265.0,273.0
21:36:19,314.0,265.0,273.0
21:36:19,314.0,265.0,273.0
21:36:19,351.0,265.0,273.0
21:36:19,351.0,265.0,273.0
21:36:19,351.0,265.0,273.0
21:36:19,351.0,265.0,273.0
21:36:19,359.0,265.0,274.0
21:36:19,359.0,265.0,274.0
21:36:19,359.0,265.0,274.0
21:36:19,359.0,265.0,274.0
21:36:19,390.0,264.0,274.0
21:36:19,390.0,264.0,274.0
21:36:19,390.0,264.0,274.0
21:36:19,390.0,264.0,274.0
21:36:19,373.0,264.0,273.0
21:36:19,373.0,264.0,273.0
21:36:19,373.0,264.0,273.0
21:36:19,373.0,264.0,273.0
21:36:19,387.0,265.0,272.0
21:36:19,387.0,265.0,272.0
21:36:19,387.0,265.0,272.0
21:36:19,387.0,265.0,272.0
21:36:19,425.0,264.0,272.0
21:36:19,425.0,264.0,272.0
21:36:19,425.0,264.0,272.0
21:36:19,425.0,264.0,272.0
21:36:19,414.0,265.0,272.0
21:36:19,414.0,265.0,272.0
21:36:19,414.0,265.0,272.0
21:36:19,414.0,265.0,272.0
21:36:19,481.0,264.0,273.0
21:36:19,481.0,264.0,273.0
21:36:19,481.0,264.0,273.0
21:36:19,481.0,264.0,273.0
21:36:19,820.0,266.0,272.0
21:36:19,820.0,266.0,272.0
21:36:19,820.0,266.0,272.0
21:36:19,820.0,266.0,272.0
21:36:19,291.0,265.0,273.0
21:36:19,291.0,265.0,273.0
21:36:19,291.0,265.0,273.0
21:36:19,291.0,265.0,273.0
21:36:19,389.0,264.0,272.0
21:36:19,389.0,264.0,272.0
21:36:19,389.0,264.0,272.0
21:36:19,389.0,264.0,272.0
21:36:19,590.0,266.0,272.0
21:36:19,590.0,266.0,272.0
21:36:19,590.0,266.0,272.0
21:36:19,590.0,266.0,272.0
21:36:19,605.0,265.0,272.0
21:36:19,605.0,265.0,272.0
21:36:19,605.0,265.0,272.0
21:36:19,605.0,265.0,272.0
21:36:19,668.0,264.0,274.0
21:36:19,668.0,264.0,274.0
21:36:19,668.0,264.0,274.0
21:36:19,668.0,264.0,274.0
21:36:19,706.0,264.0,274.0
21:36:19,706.0,264.0,274.0
21:36:19,706.0,264.0,274.0
21:36:19,706.0,264.0,274.0
21:36:19,743.0,265.0,273.0
21:36:19,743.0,265.0,273.0
21:36:19,743.0,265.0,273.0
21:36:19,743.0,265.0,273.0
21:36:19,790.0,264.0,274.0
21:36:19,790.0,264.0,274.0
21:36:19,790.0,264.0,274.0
21:36:19,790.0,264.0,274.0
21:36:19,873.0,265.0,274.0
21:36:19,873.0,265.0,274.0
21:36:19,873.0,265.0,274.0
21:36:19,873.0,265.0,274.0
21:36:19,924.0,265.0,273.0
21:36:19,924.0,265.0,273.0
21:36:19,924.0,265.0,273.0
21:36:19,924.0,265.0,273.0
21:36:19,947.0,265.0,274.0
21:36:19,947.0,265.0,274.0
21:36:19,947.0,265.0,274.0
21:36:19,947.0,265.0,274.0
21:36:19,976.0,266.0,274.0
21:36:19,976.0,266.0,274.0
21:36:19,976.0,266.0,274.0
21:36:19,976.0,266.0,274.0
21:36:19,892.0,265.0,275.0
21:36:19,892.0,265.0,275.0
21:36:19,892.0,265.0,275.0
21:36:19,892.0,265.0,275.0
21:36:19,917.0,265.0,273.0
21:36:19,917.0,265.0,273.0
21:36:19,917.0,265.0,273.0
21:36:19,917.0,265.0,273.0
21:36:19,893.0,265.0,274.0
21:36:19,893.0,265.0,274.0
21:36:19,893.0,265.0,274.0
21:36:19,893.0,265.0,274.0
21:36:19,931.0,266.0,274.0
21:36:19,931.0,266.0,274.0
21:36:19,931.0,266.0,274.0
21:36:19,931.0,266.0,274.0
21:36:19,955.0,266.0,274.0
21:36:19,955.0,266.0,274.0
21:36:19,955.0,266.0,274.0
21:36:19,955.0,266.0,274.0
21:36:19,962.0,266.0,273.0
21:36:19,962.0,266.0,273.0
21:36:19,962.0,266.0,273.0
21:36:19,962.0,266.0,273.0
21:36:19,1044.0,264.0,275.0
21:36:19,1044.0,264.0,275.0
21:36:19,1044.0,264.0,275.0
21:36:19,1044.0,264.0,275.0
21:36:19,1046.0,265.0,274.0
21:36:19,1046.0,265.0,274.0
21:36:19,1046.0,265.0,274.0
21:36:19,1046.0,265.0,274.0
21:36:19,1095.0,266.0,274.0
21:36:19,1095.0,266.0,274.0
21:36:19,1095.0,266.0,274.0
21:36:19,1095.0,266.0,274.0
21:36:19,1114.0,266.0,274.0
21:36:19,1114.0,266.0,274.0
21:36:19,1114.0,266.0,274.0
21:36:19,1114.0,266.0,274.0
21:36:19,1146.0,266.0,275.0
21:36:19,1146.0,266.0,275.0
21:36:19,1146.0,266.0,275.0
21:36:19,1146.0,266.0,275.0
21:36:19,1188.0,266.0,274.0
21:36:19,1188.0,266.0,274.0
21:36:19,1188.0,266.0,274.0
21:36:19,1188.0,266.0,274.0
21:36:19,1203.0,266.0,274.0
21:36:19,1203.0,266.0,274.0
21:36:19,1203.0,266.0,274.0
21:36:19,1203.0,266.0,274.0
21:36:19,1252.0,267.0,274.0
21:36:19,1252.0,267.0,274.0
21:36:19,1252.0,267.0,274.0
21:36:19,1252.0,267.0,274.0
21:36:19,1307.0,266.0,275.0
21:36:19,1307.0,266.0,275.0
21:36:19,1307.0,266.0,275.0
21:36:19,1307.0,266.0,275.0
21:36:19,1352.0,267.0,274.0
21:36:19,1352.0,267.0,274.0
21:36:19,1352.0,267.0,274.0
21:36:19,1352.0,267.0,274.0
21:36:19,1404.0,267.0,274.0
21:36:19,1404.0,267.0,274.0
21:36:19,1404.0,267.0,274.0
21:36:19,1404.0,267.0,274.0
21:36:19,1449.0,266.0,274.0
21:36:19,1449.0,266.0,274.0
21:36:19,1449.0,266.0,274.0
21:36:19,1449.0,266.0,274.0
21:36:19,1386.0,267.0,274.0
21:36:19,1386.0,267.0,274.0
21:36:19,1386.0,267.0,274.0
21:36:19,1386.0,267.0,274.0
21:36:19,1437.0,266.0,275.0
21:36:19,1437.0,266.0,275.0
21:36:19,1437.0,266.0,275.0
21:36:19,1437.0,266.0,275.0
21:36:19,1443.0,266.0,276.0
21:36:19,1443.0,266.0,276.0
21:36:20,1443.0,266.0,276.0
21:36:20,1443.0,266.0,276.0
21:36:20,1435.0,266.0,276.0
21:36:20,1435.0,266.0,276.0
21:36:20,1435.0,266.0,276.0
21:36:20,1435.0,266.0,276.0
21:36:20,1459.0,268.0,274.0
21:36:20,1459.0,268.0,274.0
21:36:20,1459.0,268.0,274.0
21:36:20,1459.0,268.0,274.0
21:36:20,1961.0,266.0,275.0
21:36:20,1961.0,266.0,275.0
21:36:20,1961.0,266.0,275.0
21:36:20,1961.0,266.0,275.0
21:36:20,1846.0,266.0,275.0
21:36:20,1846.0,266.0,275.0
21:36:20,1846.0,266.0,275.0
21:36:20,1846.0,266.0,275.0
21:36:20,1021.0,267.0,274.0
21:36:20,1021.0,267.0,274.0
21:36:20,1021.0,267.0,274.0
21:36:20,1021.0,267.0,274.0
21:36:20,1537.0,266.0,275.0
21:36:20,1537.0,266.0,275.0
21:36:20,1537.0,266.0,275.0
21:36:20,1537.0,266.0,275.0
21:36:20,1680.0,266.0,275.0
21:36:20,1680.0,266.0,275.0
21:36:20,1680.0,266.0,275.0
21:36:20,1680.0,266.0,275.0
21:36:20,1733.0,267.0,275.0
21:36:20,1733.0,267.0,275.0
21:36:20,1733.0,267.0,275.0
21:36:20,1733.0,267.0,275.0
21:36:20,1771.0,267.0,275.0
21:36:20,1771.0,267.0,275.0
21:36:20,1771.0,267.0,275.0
21:36:20,1771.0,267.0,275.0
21:36:20,1861.0,267.0,275.0
21:36:20,1861.0,267.0,275.0
21:36:20,1861.0,267.0,275.0
21:36:20,1861.0,267.0,275.0
21:36:20,1933.0,266.0,275.0
21:36:20,1933.0,266.0,275.0
21:36:20,1933.0,266.0,275.0
21:36:20,1933.0,266.0,275.0
21:36:20,2017.0,267.0,276.0
21:36:20,2017.0,267.0,276.0
21:36:20,2017.0,267.0,276.0
21:36:20,2017.0,267.0,276.0
21:36:20,2101.0,267.0,275.0
21:36:20,2101.0,267.0,275.0
21:36:20,2101.0,267.0,275.0
21:36:20,2101.0,267.0,275.0
21:36:20,2089.0,266.0,275.0
21:36:20,2089.0,266.0,275.0
21:36:20,2089.0,266.0,275.0
21:36:20,2089.0,266.0,275.0
21:36:20,2124.0,267.0,275.0
21:36:20,2124.0,267.0,275.0
21:36:20,2124.0,267.0,275.0
21:36:20,2124.0,267.0,275.0
21:36:20,2028.0,266.0,274.0
21:36:20,2028.0,266.0,274.0
21:36:20,2028.0,266.0,274.0
21:36:20,2028.0,266.0,274.0
21:36:20,1999.0,267.0,274.0
21:36:20,1999.0,267.0,274.0
21:36:20,1999.0,267.0,274.0
21:36:20,1999.0,267.0,274.0
21:36:20,1888.0,267.0,275.0
21:36:20,1888.0,267.0,275.0
21:36:20,1888.0,267.0,275.0
21:36:20,1888.0,267.0,275.0
21:36:20,1910.0,266.0,276.0
21:36:20,1910.0,266.0,276.0
21:36:20,1910.0,266.0,276.0
21:36:20,1910.0,266.0,276.0
21:36:20,1965.0,267.0,274.0
21:36:20,1965.0,267.0,274.0
21:36:20,1965.0,267.0,274.0
21:36:20,1965.0,267.0,274.0
21:36:20,1935.0,266.0,275.0
21:36:20,1935.0,266.0,275.0
21:36:20,1935.0,266.0,275.0
21:36:20,1935.0,266.0,275.0
21:36:20,2048.0,268.0,274.0
21:36:20,2048.0,268.0,274.0
21:36:20,2048.0,268.0,274.0
21:36:20,2048.0,268.0,274.0
21:36:20,2029.0,266.0,275.0
21:36:20,2029.0,266.0,275.0
21:36:20,2029.0,266.0,275.0
21:36:20,2029.0,266.0,275.0
21:36:20,1972.0,267.0,275.0
21:36:20,1972.0,267.0,275.0
21:36:20,1972.0,267.0,275.0
21:36:20,1972.0,267.0,275.0
21:36:20,2051.0,267.0,276.0
21:36:20,2051.0,267.0,276.0
21:36:20,2051.0,267.0,276.0
21:36:20,2051.0,267.0,276.0
21:36:20,2083.0,266.0,276.0
21:36:20,2083.0,266.0,276.0
21:36:20,2083.0,266.0,276.0
21:36:20,2083.0,266.0,276.0
21:36:20,2218.0,267.0,275.0
21:36:20,2218.0,267.0,275.0
21:36:20,2218.0,267.0,275.0
21:36:20,2218.0,267.0,275.0
21:36:20,2094.0,267.0,275.0
21:36:20,2094.0,267.0,275.0
21:36:20,2094.0,267.0,275.0
21:36:20,2094.0,267.0,275.0
21:36:20,2096.0,268.0,274.0
21:36:20,2096.0,268.0,274.0
21:36:20,2096.0,268.0,274.0
21:36:20,2096.0,268.0,274.0
21:36:20,2178.0,267.0,275.0
21:36:20,2178.0,267.0,275.0
21:36:20,2178.0,267.0,275.0
21:36:20,2178.0,267.0,275.0
21:36:20,2112.0,268.0,275.0
21:36:20,2112.0,268.0,275.0
21:36:20,2112.0,268.0,275.0
21:36:20,2112.0,268.0,275.0
21:36:20,2230.0,267.0,274.0
21:36:20,2230.0,267.0,274.0
21:36:20,2230.0,267.0,274.0
21:36:20,2230.0,267.0,274.0
21:36:20,2270.0,267.0,274.0
21:36:20,2270.0,267.0,274.0
21:36:20,2270.0,267.0,274.0
21:36:20,2270.0,267.0,274.0
21:36:20,2352.0,267.0,274.0
21:36:20,2352.0,267.0,274.0
21:36:20,2352.0,267.0,274.0
21:36:20,2352.0,267.0,274.0
21:36:20,2336.0,267.0,276.0
21:36:20,2336.0,267.0,276.0
21:36:20,2336.0,267.0,276.0
21:36:20,2336.0,267.0,276.0
21:36:20,2292.0,266.0,275.0
21:36:20,2292.0,266.0,275.0
21:36:20,2292.0,266.0,275.0
21:36:20,2292.0,266.0,275.0
21:36:20,2197.0,267.0,275.0
21:36:20,2197.0,267.0,275.0
21:36:20,2197.0,267.0,275.0
21:36:20,2197.0,267.0,275.0
21:36:20,2219.0,266.0,275.0
21:36:20,2219.0,266.0,275.0
21:36:20,2219.0,266.0,275.0
21:36:20,2219.0,266.0,275.0
21:36:20,2219.0,268.0,274.0
21:36:20,2219.0,268.0,274.0
21:36:20,2219.0,268.0,274.0
21:36:20,2219.0,268.0,274.0
21:36:20,2200.0,266.0,276.0
21:36:20,2200.0,266.0,276.0
21:36:20,2200.0,266.0,276.0
21:36:20,2200.0,266.0,276.0
21:36:20,2957.0,267.0,275.0
21:36:20,2957.0,267.0,275.0
21:36:20,2957.0,267.0,275.0
21:36:20,2957.0,267.0,275.0
21:36:20,2726.0,266.0,275.0
21:36:20,2726.0,266.0,275.0
21:36:20,2726.0,266.0,275.0
21:36:20,2726.0,266.0,275.0
21:36:20,1581.0,267.0,274.0
21:36:20,1581.0,267.0,274.0
21:36:20,1581.0,267.0,274.0
21:36:20,1581.0,267.0,274.0
21:36:20,2156.0,266.0,275.0
21:36:20,2156.0,266.0,275.0
21:36:20,2156.0,266.0,275.0
21:36:20,2156.0,266.0,275.0
21:36:20,2434.0,266.0,276.0
21:36:20,2434.0,266.0,276.0
21:36:20,2434.0,266.0,276.0
21:36:20,2434.0,266.0,276.0
21:36:20,2386.0,266.0,275.0
21:36:20,2386.0,266.0,275.0
21:36:20,2386.0,266.0,275.0
21:36:20,2386.0,266.0,275.0
21:36:20,2501.0,266.0,275.0
21:36:20,2501.0,266.0,275.0
21:36:20,2501.0,266.0,275.0
21:36:20,2501.0,266.0,275.0
21:36:20,2518.0,267.0,273.0
21:36:20,2518.0,267.0,273.0
21:36:20,2518.0,267.0,273.0
21:36:20,2518.0,267.0,273.0
21:36:20,2607.0,266.0,273.0
21:36:20,2607.0,266.0,273.0
21:36:20,2607.0,266.0,273.0
21:36:20,2607.0,266.0,273.0
21:36:20,2743.0,267.0,273.0
21:36:20,2743.0,267.0,273.0
21:36:20,2743.0,267.0,273.0
21:36:21,2743.0,267.0,273.0
21:36:21,2717.0,267.0,274.0
21:36:21,2717.0,267.0,274.0
21:36:21,2717.0,267.0,274.0
21:36:21,2717.0,267.0,274.0
21:36:21,2843.0,266.0,273.0
21:36:21,2843.0,266.0,273.0
21:36:21,2843.0,266.0,273.0
21:36:21,2843.0,266.0,273.0
21:36:21,2757.0,265.0,273.0
21:36:21,2757.0,265.0,273.0
21:36:21,2757.0,265.0,273.0
21:36:21,2757.0,265.0,273.0
21:36:21,2670.0,265.0,272.0
21:36:21,2670.0,265.0,272.0
21:36:21,2670.0,265.0,272.0
21:36:21,2670.0,265.0,272.0
21:36:21,2442.0,265.0,273.0
21:36:21,2442.0,265.0,273.0
21:36:21,2442.0,265.0,273.0
21:36:21,2442.0,265.0,273.0
21:36:21,2471.0,266.0,274.0
21:36:21,2471.0,266.0,274.0
21:36:21,2471.0,266.0,274.0
21:36:21,2471.0,266.0,274.0
21:36:21,2408.0,267.0,273.0
21:36:21,2408.0,267.0,273.0
21:36:21,2408.0,267.0,273.0
21:36:21,2408.0,267.0,273.0
21:36:21,2404.0,266.0,272.0
21:36:21,2404.0,266.0,272.0
21:36:21,2404.0,266.0,272.0
21:36:21,2404.0,266.0,272.0
21:36:21,2435.0,266.0,273.0
21:36:21,2435.0,266.0,273.0
21:36:21,2435.0,266.0,273.0
21:36:21,2435.0,266.0,273.0
21:36:21,2422.0,267.0,275.0
21:36:21,2422.0,267.0,275.0
21:36:21,2422.0,267.0,275.0
21:36:21,2422.0,267.0,275.0
21:36:21,2406.0,267.0,273.0
21:36:21,2406.0,267.0,273.0
21:36:21,2406.0,267.0,273.0
21:36:21,2406.0,267.0,273.0
21:36:21,2454.0,266.0,273.0
21:36:21,2454.0,266.0,273.0
21:36:21,2454.0,266.0,273.0
21:36:21,2454.0,266.0,273.0
21:36:21,2420.0,265.0,272.0
21:36:21,2420.0,265.0,272.0
21:36:21,2420.0,265.0,272.0
21:36:21,2420.0,265.0,272.0
21:36:21,2440.0,265.0,272.0
21:36:21,2440.0,265.0,272.0
21:36:21,2440.0,265.0,272.0
21:36:21,2440.0,265.0,272.0
21:36:21,2422.0,265.0,273.0
21:36:21,2422.0,265.0,273.0
21:36:21,2422.0,265.0,273.0
21:36:21,2422.0,265.0,273.0
21:36:21,2430.0,265.0,273.0
21:36:21,2430.0,265.0,273.0
21:36:21,2430.0,265.0,273.0
21:36:21,2430.0,265.0,273.0
21:36:21,2474.0,265.0,274.0
21:36:21,2474.0,265.0,274.0
21:36:21,2474.0,265.0,274.0
21:36:21,2474.0,265.0,274.0
21:36:21,2386.0,265.0,273.0
21:36:21,2386.0,265.0,273.0
21:36:21,2386.0,265.0,273.0
21:36:21,2386.0,265.0,273.0
21:36:21,2384.0,265.0,274.0
21:36:21,2384.0,265.0,274.0
21:36:21,2384.0,265.0,274.0
21:36:21,2384.0,265.0,274.0
21:36:21,2445.0,265.0,274.0
21:36:21,2445.0,265.0,274.0
21:36:21,2445.0,265.0,274.0
21:36:21,2445.0,265.0,274.0
21:36:21,2501.0,264.0,273.0
21:36:21,2501.0,264.0,273.0
21:36:21,2501.0,264.0,273.0
21:36:21,2501.0,264.0,273.0
21:36:21,2540.0,267.0,273.0
21:36:21,2540.0,267.0,273.0
21:36:21,2540.0,267.0,273.0
21:36:21,2540.0,267.0,273.0
21:36:21,2567.0,265.0,273.0
21:36:21,2567.0,265.0,273.0
21:36:21,2567.0,265.0,273.0
21:36:21,2567.0,265.0,273.0
21:36:21,2398.0,266.0,273.0
21:36:21,2398.0,266.0,273.0
21:36:21,2398.0,266.0,273.0
21:36:21,2398.0,266.0,273.0
21:36:21,2421.0,265.0,273.0
21:36:21,2421.0,265.0,273.0
21:36:21,2421.0,265.0,273.0
21:36:21,2421.0,265.0,273.0
21:36:21,2293.0,266.0,272.0
21:36:21,2293.0,266.0,272.0
21:36:21,2293.0,266.0,272.0
21:36:21,2293.0,266.0,272.0
21:36:21,2341.0,265.0,272.0
21:36:21,2341.0,265.0,272.0
21:36:21,2341.0,265.0,272.0
21:36:21,2341.0,265.0,272.0
21:36:21,2312.0,265.0,272.0
21:36:21,2312.0,265.0,272.0
21:36:21,2312.0,265.0,272.0
21:36:21,2312.0,265.0,272.0
21:36:21,2495.0,265.0,272.0
21:36:21,2495.0,265.0,272.0
21:36:21,2495.0,265.0,272.0
21:36:21,2495.0,265.0,272.0
21:36:21,3305.0,266.0,273.0
21:36:21,3305.0,266.0,273.0
21:36:21,3305.0,266.0,273.0
21:36:21,3305.0,266.0,273.0
21:36:21,1616.0,265.0,273.0
21:36:21,1616.0,265.0,273.0
21:36:21,1616.0,265.0,273.0
21:36:21,1616.0,265.0,273.0
21:36:21,1910.0,266.0,273.0
21:36:21,1910.0,266.0,273.0
21:36:21,1910.0,266.0,273.0
21:36:21,1910.0,266.0,273.0
21:36:21,2358.0,266.0,273.0
21:36:21,2358.0,266.0,273.0
21:36:21,2358.0,266.0,273.0
21:36:21,2358.0,266.0,273.0
21:36:21,2403.0,265.0,273.0
21:36:21,2403.0,265.0,273.0
21:36:21,2403.0,265.0,273.0
21:36:21,2403.0,265.0,273.0
21:36:21,2436.0,265.0,273.0
21:36:21,2436.0,265.0,273.0
21:36:21,2436.0,265.0,273.0
21:36:21,2436.0,265.0,273.0
21:36:21,2474.0,265.0,273.0
21:36:21,2474.0,265.0,273.0
21:36:21,2474.0,265.0,273.0
21:36:21,2474.0,265.0,273.0
21:36:21,2503.0,265.0,273.0
21:36:21,2503.0,265.0,273.0
21:36:21,2503.0,265.0,273.0
21:36:21,2503.0,265.0,273.0
21:36:21,2531.0,266.0,273.0
21:36:21,2531.0,266.0,273.0
21:36:21,2531.0,266.0,273.0
21:36:21,2531.0,266.0,273.0
21:36:21,2591.0,266.0,272.0
21:36:21,2591.0,266.0,272.0
21:36:21,2591.0,266.0,272.0
21:36:21,2591.0,266.0,272.0
21:36:21,2671.0,265.0,272.0
21:36:21,2671.0,265.0,272.0
21:36:21,2671.0,265.0,272.0
21:36:21,2671.0,265.0,272.0
21:36:21,2579.0,265.0,272.0
21:36:21,2579.0,265.0,272.0
21:36:21,2579.0,265.0,272.0
21:36:21,2579.0,265.0,272.0
21:36:21,2543.0,264.0,272.0
21:36:21,2543.0,264.0,272.0
21:36:21,2543.0,264.0,272.0
21:36:21,2543.0,264.0,272.0
21:36:21,2242.0,264.0,272.0
21:36:21,2242.0,264.0,272.0
21:36:21,2242.0,264.0,272.0
21:36:21,2242.0,264.0,272.0
21:36:21,2250.0,264.0,272.0
21:36:21,2250.0,264.0,272.0
21:36:21,2250.0,264.0,272.0
21:36:21,2250.0,264.0,272.0
21:36:21,2127.0,263.0,272.0
21:36:21,2127.0,263.0,272.0
21:36:21,2127.0,263.0,272.0
21:36:21,2127.0,263.0,272.0
21:36:21,2188.0,264.0,273.0
21:36:21,2188.0,264.0,273.0
21:36:21,2188.0,264.0,273.0
21:36:21,2188.0,264.0,273.0
21:36:21,2095.0,264.0,273.0
21:36:21,2095.0,264.0,273.0
21:36:21,2095.0,264.0,273.0
21:36:21,2095.0,264.0,273.0
21:36:21,2150.0,265.0,273.0
21:36:21,2150.0,265.0,273.0
21:36:21,2150.0,265.0,273.0
21:36:21,2150.0,265.0,273.0
21:36:21,2090.0,265.0,272.0
21:36:21,2090.0,265.0,272.0
21:36:21,2090.0,265.0,272.0
21:36:21,2090.0,265.0,272.0
21:36:21,2080.0,264.0,272.0
21:36:21,2080.0,264.0,272.0
21:36:21,2080.0,264.0,272.0
21:36:21,2080.0,264.0,272.0
21:36:22,2060.0,264.0,272.0
21:36:22,2060.0,264.0,272.0
21:36:22,2060.0,264.0,272.0
21:36:22,2060.0,264.0,272.0
21:36:22,2032.0,265.0,272.0
21:36:22,2032.0,265.0,272.0
21:36:22,2032.0,265.0,272.0
21:36:22,2032.0,265.0,272.0
21:36:22,1990.0,263.0,271.0
21:36:22,1990.0,263.0,271.0
21:36:22,1990.0,263.0,271.0
21:36:22,1990.0,263.0,271.0
21:36:22,2023.0,264.0,272.0
21:36:22,2023.0,264.0,272.0
21:36:22,2023.0,264.0,272.0
21:36:22,2023.0,264.0,272.0
21:36:22,2024.0,264.0,273.0
21:36:22,2024.0,264.0,273.0
21:36:22,2024.0,264.0,273.0
21:36:22,2024.0,264.0,273.0
21:36:22,1969.0,265.0,274.0
21:36:22,1969.0,265.0,274.0
21:36:22,1969.0,265.0,274.0
21:36:22,1969.0,265.0,274.0
21:36:22,1943.0,264.0,273.0
21:36:22,1943.0,264.0,273.0
21:36:22,1943.0,264.0,273.0
21:36:22,1943.0,264.0,273.0
21:36:22,1938.0,265.0,273.0
21:36:22,1938.0,265.0,273.0
21:36:22,1938.0,265.0,273.0
21:36:22,1938.0,265.0,273.0
21:36:22,1963.0,264.0,273.0
21:36:22,1963.0,264.0,273.0
21:36:22,1963.0,264.0,273.0
21:36:22,1963.0,264.0,273.0
21:36:22,1974.0,266.0,274.0
21:36:22,1974.0,266.0,274.0
21:36:22,1974.0,266.0,274.0
21:36:22,1974.0,266.0,274.0
21:36:22,1880.0,265.0,274.0
21:36:22,1880.0,265.0,274.0
21:36:22,1880.0,265.0,274.0
21:36:22,1880.0,265.0,274.0
21:36:22,1831.0,264.0,273.0
21:36:22,1831.0,264.0,273.0
21:36:22,1831.0,264.0,273.0
21:36:22,1831.0,264.0,273.0
21:36:22,1757.0,265.0,273.0
21:36:22,1757.0,265.0,273.0
21:36:22,1757.0,265.0,273.0
21:36:22,1757.0,265.0,273.0
21:36:22,1715.0,265.0,273.0
21:36:22,1715.0,265.0,273.0
21:36:22,1715.0,265.0,273.0
21:36:22,1715.0,265.0,273.0
21:36:22,1614.0,265.0,274.0
21:36:22,1614.0,265.0,274.0
21:36:22,1614.0,265.0,274.0
21:36:22,1614.0,265.0,274.0
21:36:22,2278.0,265.0,273.0
21:36:22,2278.0,265.0,273.0
21:36:22,2278.0,265.0,273.0
21:36:22,2278.0,265.0,273.0
21:36:22,1876.0,267.0,273.0
21:36:22,1876.0,267.0,273.0
21:36:22,1876.0,267.0,273.0
21:36:22,1876.0,267.0,273.0
21:36:22,1148.0,265.0,274.0
21:36:22,1148.0,265.0,274.0
21:36:22,1148.0,265.0,274.0
21:36:22,1148.0,265.0,274.0
21:36:22,1523.0,266.0,274.0
21:36:22,1523.0,266.0,274.0
21:36:22,1523.0,266.0,274.0
21:36:22,1523.0,266.0,274.0
21:36:22,1584.0,266.0,274.0
21:36:22,1584.0,266.0,274.0
21:36:22,1584.0,266.0,274.0
21:36:22,1584.0,266.0,274.0
21:36:22,1644.0,266.0,273.0
21:36:22,1644.0,266.0,273.0
21:36:22,1644.0,266.0,273.0
21:36:22,1644.0,266.0,273.0
21:36:22,1640.0,266.0,273.0
21:36:22,1640.0,266.0,273.0
21:36:22,1640.0,266.0,273.0
21:36:22,1640.0,266.0,273.0
21:36:22,1608.0,267.0,273.0
21:36:22,1608.0,267.0,273.0
21:36:22,1608.0,267.0,273.0
21:36:22,1608.0,267.0,273.0
21:36:22,1653.0,265.0,274.0
21:36:22,1653.0,265.0,274.0
21:36:22,1653.0,265.0,274.0
21:36:22,1653.0,265.0,274.0
21:36:22,1648.0,265.0,273.0
21:36:22,1648.0,265.0,273.0
21:36:22,1648.0,265.0,273.0
21:36:22,1648.0,265.0,273.0
21:36:22,1675.0,266.0,274.0
21:36:22,1675.0,266.0,274.0
21:36:22,1675.0,266.0,274.0
21:36:22,1675.0,266.0,274.0
21:36:22,1629.0,266.0,274.0
21:36:22,1629.0,266.0,274.0
21:36:22,1629.0,266.0,274.0
21:36:22,1629.0,266.0,274.0
21:36:22,1594.0,266.0,275.0
21:36:22,1594.0,266.0,275.0
21:36:22,1594.0,266.0,275.0
21:36:22,1594.0,266.0,275.0
21:36:22,1414.0,267.0,275.0
21:36:22,1414.0,267.0,275.0
21:36:22,1414.0,267.0,275.0
21:36:22,1414.0,267.0,275.0
21:36:22,1382.0,266.0,274.0
21:36:22,1382.0,266.0,274.0
21:36:22,1382.0,266.0,274.0
21:36:22,1382.0,266.0,274.0
21:36:22,1283.0,266.0,275.0
21:36:22,1283.0,266.0,275.0
21:36:22,1283.0,266.0,275.0
21:36:22,1283.0,266.0,275.0
21:36:22,1240.0,266.0,275.0
21:36:22,1240.0,266.0,275.0
21:36:22,1240.0,266.0,275.0
21:36:22,1240.0,266.0,275.0
21:36:22,1213.0,266.0,275.0
21:36:22,1213.0,266.0,275.0
21:36:22,1213.0,266.0,275.0
21:36:22,1213.0,266.0,275.0
21:36:22,1163.0,268.0,274.0
21:36:22,1163.0,268.0,274.0
21:36:22,1163.0,268.0,274.0
21:36:22,1163.0,268.0,274.0
21:36:22,1153.0,266.0,275.0
21:36:22,1153.0,266.0,275.0
21:36:22,1153.0,266.0,275.0
21:36:22,1153.0,266.0,275.0
21:36:22,1164.0,268.0,275.0
21:36:22,1164.0,268.0,275.0
21:36:22,1164.0,268.0,275.0
21:36:22,1164.0,268.0,275.0
21:36:22,1123.0,265.0,275.0
21:36:22,1123.0,265.0,275.0
21:36:22,1123.0,265.0,275.0
21:36:22,1123.0,265.0,275.0
21:36:22,1042.0,266.0,275.0
21:36:22,1042.0,266.0,275.0
21:36:22,1042.0,266.0,275.0
21:36:22,1042.0,266.0,275.0
21:36:22,1086.0,267.0,275.0
21:36:22,1086.0,267.0,275.0
21:36:22,1086.0,267.0,275.0
21:36:22,1086.0,267.0,275.0
21:36:22,1007.0,266.0,275.0
21:36:22,1007.0,266.0,275.0
21:36:22,1007.0,266.0,275.0
21:36:22,1007.0,266.0,275.0
21:36:22,1029.0,267.0,275.0
21:36:22,1029.0,267.0,275.0
21:36:22,1029.0,267.0,275.0
21:36:22,1029.0,267.0,275.0
21:36:22,983.0,266.0,275.0
21:36:22,983.0,266.0,275.0
21:36:22,983.0,266.0,275.0
21:36:22,983.0,266.0,275.0
21:36:22,933.0,266.0,275.0
21:36:22,933.0,266.0,275.0
21:36:22,933.0,266.0,275.0
21:36:22,933.0,266.0,275.0
21:36:22,929.0,267.0,276.0
21:36:22,929.0,267.0,276.0
21:36:22,929.0,267.0,276.0
21:36:22,929.0,267.0,276.0
21:36:22,916.0,266.0,275.0
21:36:22,916.0,266.0,275.0
21:36:22,916.0,266.0,275.0
21:36:22,916.0,266.0,275.0
21:36:22,917.0,267.0,275.0
21:36:22,917.0,267.0,275.0
21:36:22,917.0,267.0,275.0
21:36:22,917.0,267.0,275.0
21:36:22,905.0,268.0,275.0
21:36:22,905.0,268.0,275.0
21:36:22,905.0,268.0,275.0
21:36:22,905.0,268.0,275.0
21:36:22,900.0,267.0,274.0
21:36:22,900.0,267.0,274.0
21:36:22,900.0,267.0,274.0
21:36:22,900.0,267.0,274.0
21:36:22,761.0,267.0,274.0
21:36:22,761.0,267.0,274.0
21:36:22,761.0,267.0,274.0
21:36:22,761.0,267.0,274.0
21:36:22,759.0,267.0,273.0
21:36:22,759.0,267.0,273.0
21:36:22,759.0,267.0,273.0
21:36:22,759.0,267.0,273.0
21:36:22,722.0,266.0,273.0
21:36:23,722.0,266.0,273.0
21:36:23,722.0,266.0,273.0
21:36:23,722.0,266.0,273.0
21:36:23,674.0,266.0,275.0
21:36:23,674.0,266.0,275.0
21:36:23,674.0,266.0,275.0
21:36:23,674.0,266.0,275.0
21:36:23,679.0,265.0,275.0
21:36:23,679.0,265.0,275.0
21:36:23,679.0,265.0,275.0
21:36:23,679.0,265.0,275.0
21:36:23,1028.0,266.0,274.0
21:36:23,1028.0,266.0,274.0
21:36:23,1028.0,266.0,274.0
21:36:23,1028.0,266.0,274.0
21:36:23,529.0,266.0,274.0
21:36:23,529.0,266.0,274.0
21:36:23,529.0,266.0,274.0
21:36:23,529.0,266.0,274.0
21:36:23,421.0,266.0,276.0
21:36:23,421.0,266.0,276.0
21:36:23,421.0,266.0,276.0
21:36:23,421.0,266.0,276.0
21:36:23,578.0,267.0,275.0
21:36:23,578.0,267.0,275.0
21:36:23,578.0,267.0,275.0
21:36:23,578.0,267.0,275.0
21:36:23,567.0,266.0,275.0
21:36:23,567.0,266.0,275.0
21:36:23,567.0,266.0,275.0
21:36:23,567.0,266.0,275.0
21:36:23,575.0,267.0,276.0
21:36:23,575.0,267.0,276.0
21:36:23,575.0,267.0,276.0
21:36:23,575.0,267.0,276.0
21:36:23,546.0,267.0,276.0
21:36:23,546.0,267.0,276.0
21:36:23,546.0,267.0,276.0
21:36:23,546.0,267.0,276.0
21:36:23,576.0,268.0,274.0
21:36:23,576.0,268.0,274.0
21:36:23,576.0,268.0,274.0
21:36:23,576.0,268.0,274.0
21:36:23,528.0,267.0,275.0
21:36:23,528.0,267.0,275.0
21:36:23,528.0,267.0,275.0
21:36:23,528.0,267.0,275.0
21:36:23,545.0,267.0,274.0
21:36:23,545.0,267.0,274.0
21:36:23,545.0,267.0,274.0
21:36:23,545.0,267.0,274.0
21:36:23,524.0,266.0,276.0
21:36:23,524.0,266.0,276.0
21:36:23,524.0,266.0,276.0
21:36:23,524.0,266.0,276.0
21:36:23,509.0,266.0,275.0
21:36:23,509.0,266.0,275.0
21:36:23,509.0,266.0,275.0
21:36:23,509.0,266.0,275.0
21:36:23,468.0,266.0,275.0
21:36:23,468.0,266.0,275.0
21:36:23,468.0,266.0,275.0
21:36:23,468.0,266.0,275.0
21:36:23,410.0,266.0,276.0
21:36:23,410.0,266.0,276.0
21:36:23,410.0,266.0,276.0
21:36:23,410.0,266.0,276.0
21:36:23,362.0,268.0,275.0
21:36:23,362.0,268.0,275.0
21:36:23,362.0,268.0,275.0
21:36:23,362.0,268.0,275.0
21:36:23,311.0,267.0,275.0
21:36:23,311.0,267.0,275.0
21:36:23,311.0,267.0,275.0
21:36:23,311.0,267.0,275.0
21:36:23,300.0,268.0,275.0
21:36:23,300.0,268.0,275.0
21:36:23,300.0,268.0,275.0
21:36:23,300.0,268.0,275.0
21:36:23,282.0,267.0,275.0
21:36:23,282.0,267.0,275.0
21:36:23,282.0,267.0,275.0
21:36:23,282.0,267.0,275.0
21:36:23,302.0,267.0,275.0
21:36:23,302.0,267.0,275.0
21:36:23,302.0,267.0,275.0
21:36:23,302.0,267.0,275.0
21:36:23,262.0,267.0,274.0
21:36:23,262.0,267.0,274.0
21:36:23,262.0,267.0,274.0
21:36:23,262.0,267.0,274.0
21:36:23,225.0,268.0,274.0
21:36:23,225.0,268.0,274.0
21:36:23,225.0,268.0,274.0
21:36:23,225.0,268.0,274.0
21:36:23,236.0,266.0,273.0
21:36:23,236.0,266.0,273.0
21:36:23,236.0,266.0,273.0
21:36:23,236.0,266.0,273.0
21:36:23,221.0,266.0,275.0
21:36:23,221.0,266.0,275.0
21:36:23,221.0,266.0,275.0
21:36:23,221.0,266.0,275.0
21:36:23,210.0,266.0,275.0
21:36:23,210.0,266.0,275.0
21:36:23,210.0,266.0,275.0
21:36:23,210.0,266.0,275.0
21:36:23,172.0,266.0,274.0
21:36:23,172.0,266.0,274.0
21:36:23,172.0,266.0,274.0
21:36:23,172.0,266.0,274.0
21:36:23,182.0,266.0,274.0
21:36:23,182.0,266.0,274.0
21:36:23,182.0,266.0,274.0
21:36:23,182.0,266.0,274.0
21:36:23,144.0,267.0,274.0
21:36:23,144.0,267.0,274.0
21:36:23,144.0,267.0,274.0
21:36:23,144.0,267.0,274.0
21:36:23,142.0,265.0,274.0
21:36:23,142.0,265.0,274.0
21:36:23,142.0,265.0,274.0
21:36:23,142.0,265.0,274.0
21:36:23,140.0,267.0,274.0
21:36:23,140.0,267.0,274.0
21:36:23,140.0,267.0,274.0
21:36:23,140.0,267.0,274.0
21:36:23,132.0,266.0,273.0
21:36:23,132.0,266.0,273.0
21:36:23,132.0,266.0,273.0
21:36:23,132.0,266.0,273.0
21:36:23,132.0,267.0,275.0
21:36:23,132.0,267.0,275.0
21:36:23,132.0,267.0,275.0
21:36:23,132.0,267.0,275.0
21:36:23,98.0,267.0,274.0
21:36:23,98.0,267.0,274.0
21:36:23,98.0,267.0,274.0
21:36:23,98.0,267.0,274.0
21:36:23,71.0,268.0,274.0
21:36:23,71.0,268.0,274.0
21:36:23,71.0,268.0,274.0
21:36:23,71.0,268.0,274.0
21:36:23,56.0,266.0,275.0
21:36:23,56.0,266.0,275.0
21:36:23,56.0,266.0,275.0
21:36:23,56.0,266.0,275.0
21:36:23,45.0,267.0,275.0
21:36:23,45.0,267.0,275.0
21:36:23,45.0,267.0,275.0
21:36:23,45.0,267.0,275.0
21:36:23,42.0,267.0,275.0
21:36:23,42.0,267.0,275.0
21:36:23,42.0,267.0,275.0
21:36:23,42.0,267.0,275.0
21:36:23,41.0,267.0,274.0
21:36:23,41.0,267.0,274.0
21:36:23,41.0,267.0,274.0
21:36:23,41.0,267.0,274.0
21:36:23,149.0,267.0,275.0
21:36:23,149.0,267.0,275.0
21:36:23,149.0,267.0,275.0
21:36:23,149.0,267.0,275.0
21:36:23,30.0,267.0,274.0
21:36:23,30.0,267.0,274.0
21:36:23,30.0,267.0,274.0
21:36:23,30.0,267.0,274.0
21:36:23,-74.0,267.0,275.0
21:36:23,-74.0,267.0,275.0
21:36:23,-74.0,267.0,275.0
21:36:23,-74.0,267.0,275.0
21:36:23,6.0,267.0,274.0
21:36:23,6.0,267.0,274.0
21:36:23,6.0,267.0,274.0
21:36:23,6.0,267.0,274.0
21:36:23,10.0,268.0,275.0
21:36:23,10.0,268.0,275.0
21:36:23,10.0,268.0,275.0
21:36:23,10.0,268.0,275.0
21:36:23,5.0,267.0,273.0
21:36:23,5.0,267.0,273.0
21:36:23,5.0,267.0,273.0
21:36:23,5.0,267.0,273.0
21:36:23,10.0,266.0,273.0
21:36:23,10.0,266.0,273.0
21:36:23,10.0,266.0,273.0
21:36:23,10.0,266.0,273.0
21:36:23,4.0,265.0,273.0
21:36:23,4.0,265.0,273.0
21:36:23,4.0,265.0,273.0
21:36:23,4.0,265.0,273.0
21:36:23,5.0,266.0,273.0
21:36:23,5.0,266.0,273.0
21:36:23,5.0,266.0,273.0
21:36:23,5.0,266.0,273.0
21:36:23,21.0,266.0,273.0
21:36:23,21.0,266.0,273.0
21:36:23,21.0,266.0,273.0
21:36:23,21.0,266.0,273.0
21:36:23,19.0,265.0,273.0
21:36:24,19.0,265.0,273.0
21:36:24,19.0,265.0,273.0
21:36:24,19.0,265.0,273.0
21:36:24,10.0,265.0,272.0
21:36:24,10.0,265.0,272.0
21:36:24,10.0,265.0,272.0
21:36:24,10.0,265.0,272.0
21:36:24,10.0,266.0,273.0
21:36:24,10.0,266.0,273.0
21:36:24,10.0,266.0,273.0
21:36:24,10.0,266.0,273.0
21:36:24,-13.0,266.0,273.0
21:36:24,-13.0,266.0,273.0
21:36:24,-13.0,266.0,273.0
21:36:24,-13.0,266.0,273.0
21:36:24,-23.0,266.0,272.0
21:36:24,-23.0,266.0,272.0
21:36:24,-23.0,266.0,272.0
21:36:24,-23.0,266.0,272.0
21:36:24,-43.0,267.0,273.0
21:36:24,-43.0,267.0,273.0
21:36:24,-43.0,267.0,273.0
21:36:24,-43.0,267.0,273.0
21:36:24,-40.0,266.0,273.0
21:36:24,-40.0,266.0,273.0
21:36:24,-40.0,266.0,273.0
21:36:24,-40.0,266.0,273.0
21:36:24,-40.0,267.0,273.0
21:36:24,-40.0,267.0,273.0
21:36:24,-40.0,267.0,273.0
21:36:24,-40.0,267.0,273.0
21:36:24,-38.0,266.0,273.0
21:36:24,-38.0,266.0,273.0
21:36:24,-38.0,266.0,273.0
21:36:24,-38.0,266.0,273.0
21:36:24,-41.0,266.0,272.0
21:36:24,-41.0,266.0,272.0
21:36:24,-41.0,266.0,272.0
21:36:24,-41.0,266.0,272.0
21:36:24,-23.0,265.0,272.0
21:36:24,-23.0,265.0,272.0
21:36:24,-23.0,265.0,272.0
21:36:24,-23.0,265.0,272.0
21:36:24,-24.0,265.0,272.0
21:36:24,-24.0,265.0,272.0
21:36:24,-24.0,265.0,272.0
21:36:24,-24.0,265.0,272.0
21:36:24,-12.0,266.0,272.0
21:36:24,-12.0,266.0,272.0
21:36:24,-12.0,266.0,272.0
21:36:24,-12.0,266.0,272.0
21:36:24,-12.0,265.0,272.0
21:36:24,-12.0,265.0,272.0
21:36:24,-12.0,265.0,272.0
21:36:24,-12.0,265.0,272.0
21:36:24,-14.0,266.0,273.0
21:36:24,-14.0,266.0,273.0
21:36:24,-14.0,266.0,273.0
21:36:24,-14.0,266.0,273.0
21:36:24,-5.0,265.0,274.0
21:36:24,-5.0,265.0,274.0
21:36:24,-5.0,265.0,274.0
21:36:24,-5.0,265.0,274.0
21:36:24,-3.0,267.0,272.0
21:36:24,-3.0,267.0,272.0
21:36:24,-3.0,267.0,272.0
21:36:24,-3.0,267.0,272.0
21:36:24,8.0,265.0,272.0
21:36:24,8.0,265.0,272.0
21:36:24,8.0,265.0,272.0
21:36:24,8.0,265.0,272.0
21:36:24,13.0,266.0,273.0
21:36:24,13.0,266.0,273.0
21:36:24,13.0,266.0,273.0
21:36:24,13.0,266.0,273.0
21:36:24,22.0,266.0,272.0
21:36:24,22.0,266.0,272.0
21:36:24,22.0,266.0,272.0
21:36:24,22.0,266.0,272.0
21:36:24,68.0,265.0,272.0
21:36:24,68.0,265.0,272.0
21:36:24,68.0,265.0,272.0
21:36:24,68.0,265.0,272.0
21:36:24,82.0,264.0,271.0
21:36:24,82.0,264.0,271.0
21:36:24,82.0,264.0,271.0
21:36:24,82.0,264.0,271.0
21:36:24,69.0,264.0,273.0
21:36:24,69.0,264.0,273.0
21:36:24,69.0,264.0,273.0
21:36:24,69.0,264.0,273.0
21:36:24,67.0,264.0,272.0
21:36:24,67.0,264.0,272.0
21:36:24,67.0,264.0,272.0
21:36:24,67.0,264.0,272.0
21:36:24,84.0,265.0,272.0
21:36:24,84.0,265.0,272.0
21:36:24,84.0,265.0,272.0
21:36:24,84.0,265.0,272.0
21:36:24,97.0,265.0,273.0
21:36:24,97.0,265.0,273.0
21:36:24,97.0,265.0,273.0
21:36:24,97.0,265.0,273.0
21:36:24,95.0,264.0,272.0
21:36:24,95.0,264.0,272.0
21:36:24,95.0,264.0,272.0
21:36:24,95.0,264.0,272.0
21:36:24,117.0,265.0,271.0
21:36:24,117.0,265.0,271.0
21:36:24,117.0,265.0,271.0
21:36:24,117.0,265.0,271.0
21:36:24,313.0,265.0,272.0
21:36:24,313.0,265.0,272.0
21:36:24,313.0,265.0,272.0
21:36:24,313.0,265.0,272.0
21:36:24,110.0,266.0,272.0
21:36:24,110.0,266.0,272.0
21:36:24,110.0,266.0,272.0
21:36:24,110.0,266.0,272.0
21:36:24,65.0,265.0,272.0
21:36:24,65.0,265.0,272.0
21:36:24,65.0,265.0,272.0
21:36:24,65.0,265.0,272.0
21:36:24,186.0,264.0,272.0
21:36:24,186.0,264.0,272.0
21:36:24,186.0,264.0,272.0
21:36:24,186.0,264.0,272.0
21:36:24,202.0,265.0,272.0
21:36:24,202.0,265.0,272.0
21:36:24,202.0,265.0,272.0
21:36:24,202.0,265.0,272.0
21:36:24,251.0,264.0,271.0
21:36:24,251.0,264.0,271.0
21:36:24,251.0,264.0,271.0
21:36:24,251.0,264.0,271.0
21:36:24,264.0,265.0,272.0
21:36:24,264.0,265.0,272.0
21:36:24,264.0,265.0,272.0
21:36:24,264.0,265.0,272.0
21:36:24,301.0,264.0,272.0
21:36:24,301.0,264.0,272.0
21:36:24,301.0,264.0,272.0
21:36:24,301.0,264.0,272.0
21:36:24,335.0,263.0,273.0
21:36:24,335.0,263.0,273.0
21:36:24,335.0,263.0,273.0
21:36:24,335.0,263.0,273.0
21:36:24,365.0,266.0,272.0
21:36:24,365.0,266.0,272.0
21:36:24,365.0,266.0,272.0
21:36:24,365.0,266.0,272.0
21:36:24,425.0,264.0,274.0
21:36:24,425.0,264.0,274.0
21:36:24,425.0,264.0,274.0
21:36:24,425.0,264.0,274.0
21:36:24,445.0,264.0,273.0
21:36:24,445.0,264.0,273.0
21:36:24,445.0,264.0,273.0
21:36:24,445.0,264.0,273.0
21:36:24,438.0,264.0,274.0
21:36:24,438.0,264.0,274.0
21:36:24,438.0,264.0,274.0
21:36:24,438.0,264.0,274.0
21:36:24,447.0,266.0,272.0
21:36:24,447.0,266.0,272.0
21:36:24,447.0,266.0,272.0
21:36:24,447.0,266.0,272.0
21:36:24,438.0,265.0,273.0
21:36:24,438.0,265.0,273.0
21:36:24,438.0,265.0,273.0
21:36:24,438.0,265.0,273.0
21:36:24,440.0,266.0,272.0
21:36:24,440.0,266.0,272.0
21:36:24,440.0,266.0,272.0
21:36:24,440.0,266.0,272.0
21:36:24,448.0,265.0,272.0
21:36:24,448.0,265.0,272.0
21:36:24,448.0,265.0,272.0
21:36:24,448.0,265.0,272.0
21:36:24,477.0,265.0,273.0
21:36:24,477.0,265.0,273.0
21:36:24,477.0,265.0,273.0
21:36:24,477.0,265.0,273.0
21:36:24,474.0,264.0,273.0
21:36:24,474.0,264.0,273.0
21:36:24,474.0,264.0,273.0
21:36:24,474.0,264.0,273.0
21:36:24,524.0,265.0,273.0
21:36:24,524.0,265.0,273.0
21:36:24,524.0,265.0,273.0
21:36:24,524.0,265.0,273.0
21:36:24,553.0,265.0,272.0
21:36:24,553.0,265.0,272.0
21:36:24,553.0,265.0,272.0
21:36:24,553.0,265.0,272.0
21:36:24,599.0,265.0,274.0
21:36:24,599.0,265.0,274.0
21:36:24,599.0,265.0,274.0
21:36:24,599.0,265.0,274.0
21:36:24,641.0,264.0,272.0
21:36:24,641.0,264.0,272.0
21:36:25,641.0,264.0,272.0
21:36:25,641.0,264.0,272.0
21:36:25,679.0,265.0,274.0
21:36:25,679.0,265.0,274.0
21:36:25,679.0,265.0,274.0
21:36:25,679.0,265.0,274.0
21:36:25,677.0,265.0,273.0
21:36:25,677.0,265.0,273.0
21:36:25,677.0,265.0,273.0
21:36:25,677.0,265.0,273.0
21:36:25,733.0,264.0,272.0
21:36:25,733.0,264.0,272.0
21:36:25,733.0,264.0,272.0
21:36:25,733.0,264.0,272.0
21:36:25,732.0,264.0,274.0
21:36:25,732.0,264.0,274.0
21:36:25,732.0,264.0,274.0
21:36:25,732.0,264.0,274.0
21:36:25,787.0,265.0,274.0
21:36:25,787.0,265.0,274.0
21:36:25,787.0,265.0,274.0
21:36:25,787.0,265.0,274.0
21:36:25,848.0,265.0,274.0
21:36:25,848.0,265.0,274.0
21:36:25,848.0,265.0,274.0
21:36:25,848.0,265.0,274.0
21:36:25,870.0,265.0,274.0
21:36:25,870.0,265.0,274.0
21:36:25,870.0,265.0,274.0
21:36:25,870.0,265.0,274.0
21:36:25,959.0,265.0,273.0
21:36:25,959.0,265.0,273.0
21:36:25,959.0,265.0,273.0
21:36:25,959.0,265.0,273.0
21:36:25,970.0,266.0,273.0
21:36:25,970.0,266.0,273.0
21:36:25,970.0,266.0,273.0
21:36:25,970.0,266.0,273.0
21:36:25,975.0,265.0,273.0
21:36:25,975.0,265.0,273.0
21:36:25,975.0,265.0,273.0
21:36:25,975.0,265.0,273.0
21:36:25,1011.0,265.0,274.0
21:36:25,1011.0,265.0,274.0
21:36:25,1011.0,265.0,274.0
21:36:25,1011.0,265.0,274.0
21:36:25,971.0,265.0,274.0
21:36:25,971.0,265.0,274.0
21:36:25,971.0,265.0,274.0
21:36:25,971.0,265.0,274.0
21:36:25,1037.0,266.0,274.0
21:36:25,1037.0,266.0,274.0
21:36:25,1037.0,266.0,274.0
21:36:25,1037.0,266.0,274.0
21:36:25,1041.0,266.0,273.0
21:36:25,1041.0,266.0,273.0
21:36:25,1041.0,266.0,273.0
21:36:25,1041.0,266.0,273.0
21:36:25,1454.0,265.0,273.0
21:36:25,1454.0,265.0,273.0
21:36:25,1454.0,265.0,273.0
21:36:25,1454.0,265.0,273.0
21:36:25,1331.0,265.0,273.0
21:36:25,1331.0,265.0,273.0
21:36:25,1331.0,265.0,273.0
21:36:25,1331.0,265.0,273.0
21:36:25,874.0,265.0,274.0
21:36:25,874.0,265.0,274.0
21:36:25,874.0,265.0,274.0
21:36:25,874.0,265.0,274.0
21:36:25,1137.0,266.0,275.0
21:36:25,1137.0,266.0,275.0
21:36:25,1137.0,266.0,275.0
21:36:25,1137.0,266.0,275.0
21:36:25,1341.0,265.0,274.0
21:36:25,1341.0,265.0,274.0
21:36:25,1341.0,265.0,274.0
21:36:25,1341.0,265.0,274.0
21:36:25,1332.0,265.0,274.0
21:36:25,1332.0,265.0,274.0
21:36:25,1332.0,265.0,274.0
21:36:25,1332.0,265.0,274.0
21:36:25,1408.0,266.0,274.0
21:36:25,1408.0,266.0,274.0
21:36:25,1408.0,266.0,274.0
21:36:25,1408.0,266.0,274.0
21:36:25,1497.0,266.0,274.0
21:36:25,1497.0,266.0,274.0
21:36:25,1497.0,266.0,274.0
21:36:25,1497.0,266.0,274.0
21:36:25,1538.0,267.0,273.0
21:36:25,1538.0,267.0,273.0
21:36:25,1538.0,267.0,273.0
21:36:25,1538.0,267.0,273.0
21:36:25,1629.0,266.0,274.0
21:36:25,1629.0,266.0,274.0
21:36:25,1629.0,266.0,274.0
21:36:25,1629.0,266.0,274.0
21:36:25,1704.0,266.0,274.0
21:36:25,1704.0,266.0,274.0
21:36:25,1704.0,266.0,274.0
21:36:25,1704.0,266.0,274.0
21:36:25,1788.0,266.0,274.0
21:36:25,1788.0,266.0,274.0
21:36:25,1788.0,266.0,274.0
21:36:25,1788.0,266.0,274.0
21:36:25,1756.0,266.0,275.0
21:36:25,1756.0,266.0,275.0
21:36:25,1756.0,266.0,275.0
21:36:25,1756.0,266.0,275.0
21:36:25,1732.0,266.0,275.0
21:36:25,1732.0,266.0,275.0
21:36:25,1732.0,266.0,275.0
21:36:25,1732.0,266.0,275.0
21:36:25,1673.0,266.0,274.0
21:36:25,1673.0,266.0,274.0
21:36:25,1673.0,266.0,274.0
21:36:25,1673.0,266.0,274.0
21:36:25,1711.0,266.0,274.0
21:36:25,1711.0,266.0,274.0
21:36:25,1711.0,266.0,274.0
21:36:25,1711.0,266.0,274.0
21:36:25,1735.0,266.0,274.0
21:36:25,1735.0,266.0,274.0
21:36:25,1735.0,266.0,274.0
21:36:25,1735.0,266.0,274.0
21:36:25,1794.0,267.0,274.0
21:36:25,1794.0,267.0,274.0
21:36:25,1794.0,267.0,274.0
21:36:25,1794.0,267.0,274.0
21:36:25,1807.0,266.0,274.0
21:36:25,1807.0,266.0,274.0
21:36:25,1807.0,266.0,274.0
21:36:25,1807.0,266.0,274.0
21:36:25,1859.0,266.0,275.0
21:36:25,1859.0,266.0,275.0
21:36:25,1859.0,266.0,275.0
21:36:25,1859.0,266.0,275.0
21:36:25,1866.0,266.0,275.0
21:36:25,1866.0,266.0,275.0
21:36:25,1866.0,266.0,275.0
21:36:25,1866.0,266.0,275.0
21:36:25,1951.0,266.0,275.0
21:36:25,1951.0,266.0,275.0
21:36:25,1951.0,266.0,275.0
21:36:25,1951.0,266.0,275.0
21:36:25,1925.0,266.0,274.0
21:36:25,1925.0,266.0,274.0
21:36:25,1925.0,266.0,274.0
21:36:25,1925.0,266.0,274.0
21:36:25,1991.0,266.0,276.0
21:36:25,1991.0,266.0,276.0
21:36:25,1991.0,266.0,276.0
21:36:25,1991.0,266.0,276.0
21:36:25,2078.0,267.0,275.0
21:36:25,2078.0,267.0,275.0
21:36:25,2078.0,267.0,275.0
21:36:25,2078.0,267.0,275.0
21:36:25,2041.0,267.0,276.0
21:36:25,2041.0,267.0,276.0
21:36:25,2041.0,267.0,276.0
21:36:25,2041.0,267.0,276.0
21:36:25,2128.0,268.0,275.0
21:36:25,2128.0,268.0,275.0
21:36:25,2128.0,268.0,275.0
21:36:25,2128.0,268.0,275.0
21:36:25,2182.0,267.0,275.0
21:36:25,2182.0,267.0,275.0
21:36:25,2182.0,267.0,275.0
21:36:25,2182.0,267.0,275.0
21:36:25,2305.0,267.0,274.0
21:36:25,2305.0,267.0,274.0
21:36:25,2305.0,267.0,274.0
21:36:25,2305.0,267.0,274.0
21:36:25,2337.0,267.0,274.0
21:36:25,2337.0,267.0,274.0
21:36:25,2337.0,267.0,274.0
21:36:25,2337.0,267.0,274.0
21:36:25,2314.0,267.0,276.0
21:36:25,2314.0,267.0,276.0
21:36:25,2314.0,267.0,276.0
21:36:25,2314.0,267.0,276.0
21:36:25,2295.0,266.0,274.0
21:36:25,2295.0,266.0,274.0
21:36:25,2295.0,266.0,274.0
21:36:25,2295.0,266.0,274.0
21:36:25,2304.0,268.0,275.0
21:36:25,2304.0,268.0,275.0
21:36:25,2304.0,268.0,275.0
21:36:25,2304.0,268.0,275.0
21:36:25,2281.0,268.0,275.0
21:36:25,2281.0,268.0,275.0
21:36:25,2281.0,268.0,275.0
21:36:25,2281.0,268.0,275.0
21:36:25,2409.0,267.0,276.0
21:36:25,2409.0,267.0,276.0
21:36:25,2409.0,267.0,276.0
21:36:25,2409.0,267.0,276.0
21:36:25,2468.0,266.0,275.0
21:36:25,2468.0,266.0,275.0
21:36:25,2468.0,266.0,275.0
21:36:26,2468.0,266.0,275.0
21:36:26,3241.0,266.0,275.0
21:36:26,3241.0,266.0,275.0
21:36:26,3241.0,266.0,275.0
21:36:26,3241.0,266.0,275.0
21:36:26,1843.0,267.0,275.0
21:36:26,1843.0,267.0,275.0
21:36:26,1843.0,267.0,275.0
21:36:26,1843.0,267.0,275.0
21:36:26,2329.0,267.0,275.0
21:36:26,2329.0,267.0,275.0
21:36:26,2329.0,267.0,275.0
21:36:26,2329.0,267.0,275.0
21:36:26,2538.0,267.0,276.0
21:36:26,2538.0,267.0,276.0
21:36:26,2538.0,267.0,276.0
21:36:26,2538.0,267.0,276.0
21:36:26,2579.0,266.0,274.0
21:36:26,2579.0,266.0,274.0
21:36:26,2579.0,266.0,274.0
21:36:26,2579.0,266.0,274.0
21:36:26,2690.0,266.0,273.0
21:36:26,2690.0,266.0,273.0
21:36:26,2690.0,266.0,273.0
21:36:26,2690.0,266.0,273.0
21:36:26,2760.0,267.0,274.0
21:36:26,2760.0,267.0,274.0
21:36:26,2760.0,267.0,274.0
21:36:26,2760.0,267.0,274.0
21:36:26,2823.0,266.0,274.0
21:36:26,2823.0,266.0,274.0
21:36:26,2823.0,266.0,274.0
21:36:26,2823.0,266.0,274.0
21:36:26,2892.0,266.0,274.0
21:36:26,2892.0,266.0,274.0
21:36:26,2892.0,266.0,274.0
21:36:26,2892.0,266.0,274.0
21:36:26,3053.0,267.0,274.0
21:36:26,3053.0,267.0,274.0
21:36:26,3053.0,267.0,274.0
21:36:26,3053.0,267.0,274.0
21:36:26,3087.0,268.0,274.0
21:36:26,3087.0,268.0,274.0
21:36:26,3087.0,268.0,274.0
21:36:26,3087.0,268.0,274.0
21:36:26,3110.0,266.0,275.0
21:36:26,3110.0,266.0,275.0
21:36:26,3110.0,266.0,275.0
21:36:26,3110.0,266.0,275.0
21:36:26,2989.0,266.0,274.0
21:36:26,2989.0,266.0,274.0
21:36:26,2989.0,266.0,274.0
21:36:26,2989.0,266.0,274.0
21:36:26,2957.0,266.0,273.0
21:36:26,2957.0,266.0,273.0
21:36:26,2957.0,266.0,273.0
21:36:26,2957.0,266.0,273.0
21:36:26,2812.0,267.0,274.0
21:36:26,2812.0,267.0,274.0
21:36:26,2812.0,267.0,274.0
21:36:26,2812.0,267.0,274.0
21:36:26,2847.0,267.0,275.0
21:36:26,2847.0,267.0,275.0
21:36:26,2847.0,267.0,275.0
21:36:26,2847.0,267.0,275.0
21:36:26,2875.0,268.0,274.0
21:36:26,2875.0,268.0,274.0
21:36:26,2875.0,268.0,274.0
21:36:26,2875.0,268.0,274.0
21:36:26,2817.0,266.0,274.0
21:36:26,2817.0,266.0,274.0
21:36:26,2817.0,266.0,274.0
21:36:26,2817.0,266.0,274.0
21:36:26,2913.0,267.0,274.0
21:36:26,2913.0,267.0,274.0
21:36:26,2913.0,267.0,274.0
21:36:26,2913.0,267.0,274.0
21:36:26,2937.0,267.0,274.0
21:36:26,2937.0,267.0,274.0
21:36:26,2937.0,267.0,274.0
21:36:26,2937.0,267.0,274.0
21:36:26,2888.0,266.0,274.0
21:36:26,2888.0,266.0,274.0
21:36:26,2888.0,266.0,274.0
21:36:26,2888.0,266.0,274.0
21:36:26,2918.0,266.0,274.0
21:36:26,2918.0,266.0,274.0
21:36:26,2918.0,266.0,274.0
21:36:26,2918.0,266.0,274.0
21:36:26,2971.0,266.0,272.0
21:36:26,2971.0,266.0,272.0
21:36:26,2971.0,266.0,272.0
21:36:26,2971.0,266.0,272.0
21:36:26,3056.0,266.0,274.0
21:36:26,3056.0,266.0,274.0
21:36:26,3056.0,266.0,274.0
21:36:26,3056.0,266.0,274.0
21:36:26,2998.0,266.0,275.0
21:36:26,2998.0,266.0,275.0
21:36:26,2998.0,266.0,275.0
21:36:26,2998.0,266.0,275.0
21:36:26,3004.0,266.0,274.0
21:36:26,3004.0,266.0,274.0
21:36:26,3004.0,266.0,274.0
21:36:26,3004.0,266.0,274.0
21:36:26,3059.0,265.0,275.0
21:36:26,3059.0,265.0,275.0
21:36:26,3059.0,265.0,275.0
21:36:26,3059.0,265.0,275.0
21:36:26,3143.0,266.0,274.0
21:36:26,3143.0,266.0,274.0
21:36:26,3143.0,266.0,274.0
21:36:26,3143.0,266.0,274.0
21:36:26,3154.0,266.0,274.0
21:36:26,3154.0,266.0,274.0
21:36:26,3154.0,266.0,274.0
21:36:26,3154.0,266.0,274.0
21:36:26,3209.0,268.0,275.0
21:36:26,3209.0,268.0,275.0
21:36:26,3209.0,268.0,275.0
21:36:26,3209.0,268.0,275.0
21:36:26,3227.0,266.0,276.0
21:36:26,3227.0,266.0,276.0
21:36:26,3227.0,266.0,276.0
21:36:26,3227.0,266.0,276.0
21:36:26,3152.0,267.0,275.0
21:36:26,3152.0,267.0,275.0
21:36:26,3152.0,267.0,275.0
21:36:26,3152.0,267.0,275.0
21:36:26,3093.0,267.0,274.0
21:36:26,3093.0,267.0,274.0
21:36:26,3093.0,267.0,274.0
21:36:26,3093.0,267.0,274.0
21:36:26,3072.0,266.0,274.0
21:36:26,3072.0,266.0,274.0
21:36:26,3072.0,266.0,274.0
21:36:26,3072.0,266.0,274.0
21:36:26,3104.0,267.0,273.0
21:36:26,3104.0,267.0,273.0
21:36:26,3104.0,267.0,273.0
21:36:26,3104.0,267.0,273.0
21:36:26,3114.0,267.0,274.0
21:36:26,3114.0,267.0,274.0
21:36:26,3114.0,267.0,274.0
21:36:26,3114.0,267.0,274.0
21:36:26,3985.0,265.0,274.0
21:36:26,3985.0,265.0,274.0
21:36:26,3985.0,265.0,274.0
21:36:26,3985.0,265.0,274.0
21:36:26,3196.0,266.0,275.0
21:36:26,3196.0,266.0,275.0
21:36:26,3196.0,266.0,275.0
21:36:26,3196.0,266.0,275.0
21:36:26,2509.0,266.0,274.0
21:36:26,2509.0,266.0,274.0
21:36:26,2509.0,266.0,274.0
21:36:26,2509.0,266.0,274.0
21:36:26,3178.0,266.0,273.0
21:36:26,3178.0,266.0,273.0
21:36:26,3178.0,266.0,273.0
21:36:26,3178.0,266.0,273.0
21:36:26,3192.0,267.0,274.0
21:36:26,3192.0,267.0,274.0
21:36:26,3192.0,267.0,274.0
21:36:26,3192.0,267.0,274.0
21:36:26,3249.0,266.0,274.0
21:36:26,3249.0,266.0,274.0
21:36:26,3249.0,266.0,274.0
21:36:26,3249.0,266.0,274.0
21:36:26,3363.0,266.0,275.0
21:36:26,3363.0,266.0,275.0
21:36:26,3363.0,266.0,275.0
21:36:26,3363.0,266.0,275.0
21:36:26,3404.0,266.0,274.0
21:36:26,3404.0,266.0,274.0
21:36:26,3404.0,266.0,274.0
21:36:26,3404.0,266.0,274.0
21:36:26,3388.0,266.0,276.0
21:36:26,3388.0,266.0,276.0
21:36:26,3388.0,266.0,276.0
21:36:26,3388.0,266.0,276.0
21:36:26,3578.0,266.0,273.0
21:36:26,3578.0,266.0,273.0
21:36:26,3578.0,266.0,273.0
21:36:26,3578.0,266.0,273.0
21:36:26,3574.0,266.0,274.0
21:36:26,3574.0,266.0,274.0
21:36:26,3574.0,266.0,274.0
21:36:26,3574.0,266.0,274.0
21:36:26,3616.0,266.0,274.0
21:36:26,3616.0,266.0,274.0
21:36:26,3616.0,266.0,274.0
21:36:26,3616.0,266.0,274.0
21:36:26,3539.0,267.0,274.0
21:36:26,3539.0,267.0,274.0
21:36:26,3539.0,267.0,274.0
21:36:26,3539.0,267.0,274.0
21:36:26,3357.0,266.0,273.0
21:36:26,3357.0,266.0,273.0
21:36:26,3357.0,266.0,273.0
21:36:26,3357.0,266.0,273.0
21:36:27,3249.0,265.0,274.0
21:36:27,3249.0,265.0,274.0
21:36:27,3249.0,265.0,274.0
21:36:27,3249.0,265.0,274.0
21:36:27,3198.0,266.0,273.0
21:36:27,3198.0,266.0,273.0
21:36:27,3198.0,266.0,273.0
21:36:27,3198.0,266.0,273.0
21:36:27,3185.0,267.0,273.0
21:36:27,3185.0,267.0,273.0
21:36:27,3185.0,267.0,273.0
21:36:27,3185.0,267.0,273.0
21:36:27,3200.0,267.0,274.0
21:36:27,3200.0,267.0,274.0
21:36:27,3200.0,267.0,274.0
21:36:27,3200.0,267.0,274.0
21:36:27,3198.0,266.0,274.0
21:36:27,3198.0,266.0,274.0
21:36:27,3198.0,266.0,274.0
21:36:27,3198.0,266.0,274.0
21:36:27,3188.0,266.0,273.0
21:36:27,3188.0,266.0,273.0
21:36:27,3188.0,266.0,273.0
21:36:27,3188.0,266.0,273.0
21:36:27,3220.0,267.0,274.0
21:36:27,3220.0,267.0,274.0
21:36:27,3220.0,267.0,274.0
21:36:27,3220.0,267.0,274.0
21:36:27,3206.0,265.0,273.0
21:36:27,3206.0,265.0,273.0
21:36:27,3206.0,265.0,273.0
21:36:27,3206.0,265.0,273.0
21:36:27,3227.0,265.0,273.0
21:36:27,3227.0,265.0,273.0
21:36:27,3227.0,265.0,273.0
21:36:27,3227.0,265.0,273.0
21:36:27,3205.0,265.0,272.0
21:36:27,3205.0,265.0,272.0
21:36:27,3205.0,265.0,272.0
21:36:27,3205.0,265.0,272.0
21:36:27,3195.0,266.0,272.0
21:36:27,3195.0,266.0,272.0
21:36:27,3195.0,266.0,272.0
21:36:27,3195.0,266.0,272.0
21:36:27,3156.0,265.0,272.0
21:36:27,3156.0,265.0,272.0
21:36:27,3156.0,265.0,272.0
21:36:27,3156.0,265.0,272.0
21:36:27,3134.0,265.0,274.0
21:36:27,3134.0,265.0,274.0
21:36:27,3134.0,265.0,274.0
21:36:27,3134.0,265.0,274.0
21:36:27,3172.0,265.0,273.0
21:36:27,3172.0,265.0,273.0
21:36:27,3172.0,265.0,273.0
21:36:27,3172.0,265.0,273.0
21:36:27,3183.0,266.0,273.0
21:36:27,3183.0,266.0,273.0
21:36:27,3183.0,266.0,273.0
21:36:27,3183.0,266.0,273.0
21:36:27,3280.0,265.0,273.0
21:36:27,3280.0,265.0,273.0
21:36:27,3280.0,265.0,273.0
21:36:27,3280.0,265.0,273.0
21:36:27,3314.0,266.0,273.0
21:36:27,3314.0,266.0,273.0
21:36:27,3314.0,266.0,273.0
21:36:27,3314.0,266.0,273.0
21:36:27,3243.0,265.0,273.0
21:36:27,3243.0,265.0,273.0
21:36:27,3243.0,265.0,273.0
21:36:27,3243.0,265.0,273.0
21:36:27,3079.0,265.0,271.0
21:36:27,3079.0,265.0,271.0
21:36:27,3079.0,265.0,271.0
21:36:27,3079.0,265.0,271.0
21:36:27,3108.0,265.0,274.0
21:36:27,3108.0,265.0,274.0
21:36:27,3108.0,265.0,274.0
21:36:27,3108.0,265.0,274.0
21:36:27,3046.0,265.0,272.0
21:36:27,3046.0,265.0,272.0
21:36:27,3046.0,265.0,272.0
21:36:27,3046.0,265.0,272.0
21:36:27,3029.0,265.0,273.0
21:36:27,3029.0,265.0,273.0
21:36:27,3029.0,265.0,273.0
21:36:27,3029.0,265.0,273.0
21:36:27,2970.0,264.0,272.0
21:36:27,2970.0,264.0,272.0
21:36:27,2970.0,264.0,272.0
21:36:27,2970.0,264.0,272.0
21:36:27,4126.0,265.0,273.0
21:36:27,4126.0,265.0,273.0
21:36:27,4126.0,265.0,273.0
21:36:27,4126.0,265.0,273.0
21:36:27,2902.0,265.0,272.0
21:36:27,2902.0,265.0,272.0
21:36:27,2902.0,265.0,272.0
21:36:27,2902.0,265.0,272.0
21:36:27,2433.0,264.0,271.0
21:36:27,2433.0,264.0,271.0
21:36:27,2433.0,264.0,271.0
21:36:27,2433.0,264.0,271.0
21:36:27,3087.0,264.0,272.0
21:36:27,3087.0,264.0,272.0
21:36:27,3087.0,264.0,272.0
21:36:27,3087.0,264.0,272.0
21:36:27,3047.0,264.0,272.0
21:36:27,3047.0,264.0,272.0
21:36:27,3047.0,264.0,272.0
21:36:27,3047.0,264.0,272.0
21:36:27,3092.0,263.0,272.0
21:36:27,3092.0,263.0,272.0
21:36:27,3092.0,263.0,272.0
21:36:27,3092.0,263.0,272.0
21:36:27,3105.0,265.0,272.0
21:36:27,3105.0,265.0,272.0
21:36:27,3105.0,265.0,272.0
21:36:27,3105.0,265.0,272.0
21:36:27,3118.0,265.0,273.0
21:36:27,3118.0,265.0,273.0
21:36:27,3118.0,265.0,273.0
21:36:27,3118.0,265.0,273.0
21:36:27,3148.0,264.0,271.0
21:36:27,3148.0,264.0,271.0
21:36:27,3148.0,264.0,271.0
21:36:27,3148.0,264.0,271.0
21:36:27,3217.0,264.0,272.0
21:36:27,3217.0,264.0,272.0
21:36:27,3217.0,264.0,272.0
21:36:27,3217.0,264.0,272.0
21:36:27,3283.0,264.0,272.0
21:36:27,3283.0,264.0,272.0
21:36:27,3283.0,264.0,272.0
21:36:27,3283.0,264.0,272.0
21:36:27,3266.0,264.0,272.0
21:36:27,3266.0,264.0,272.0
21:36:27,3266.0,264.0,272.0
21:36:27,3266.0,264.0,272.0
21:36:27,3160.0,264.0,272.0
21:36:27,3160.0,264.0,272.0
21:36:27,3160.0,264.0,272.0
21:36:27,3160.0,264.0,272.0
21:36:27,3016.0,264.0,273.0
21:36:27,3016.0,264.0,273.0
21:36:27,3016.0,264.0,273.0
21:36:27,3016.0,264.0,273.0
21:36:27,2892.0,264.0,273.0
21:36:27,2892.0,264.0,273.0
21:36:27,2892.0,264.0,273.0
21:36:27,2892.0,264.0,273.0
21:36:27,2789.0,265.0,272.0
21:36:27,2789.0,265.0,272.0
21:36:27,2789.0,265.0,272.0
21:36:27,2789.0,265.0,272.0
21:36:27,2766.0,264.0,273.0
21:36:27,2766.0,264.0,273.0
21:36:27,2766.0,264.0,273.0
21:36:27,2766.0,264.0,273.0
21:36:27,2764.0,264.0,272.0
21:36:27,2764.0,264.0,272.0
21:36:27,2764.0,264.0,272.0
21:36:27,2764.0,264.0,272.0
21:36:27,2742.0,265.0,272.0
21:36:27,2742.0,265.0,272.0
21:36:27,2742.0,265.0,272.0
21:36:27,2742.0,265.0,272.0
21:36:27,2669.0,264.0,271.0
21:36:27,2669.0,264.0,271.0
21:36:27,2669.0,264.0,271.0
21:36:27,2669.0,264.0,271.0
21:36:27,2678.0,265.0,272.0
21:36:27,2678.0,265.0,272.0
21:36:27,2678.0,265.0,272.0
21:36:27,2678.0,265.0,272.0
21:36:27,2693.0,264.0,272.0
21:36:27,2693.0,264.0,272.0
21:36:27,2693.0,264.0,272.0
21:36:27,2693.0,264.0,272.0
21:36:27,2710.0,265.0,272.0
21:36:27,2710.0,265.0,272.0
21:36:27,2710.0,265.0,272.0
21:36:27,2710.0,265.0,272.0
21:36:27,2632.0,264.0,272.0
21:36:27,2632.0,264.0,272.0
21:36:27,2632.0,264.0,272.0
21:36:27,2632.0,264.0,272.0
21:36:27,2619.0,264.0,273.0
21:36:27,2619.0,264.0,273.0
21:36:27,2619.0,264.0,273.0
21:36:27,2619.0,264.0,273.0
21:36:27,2571.0,264.0,273.0
21:36:27,2571.0,264.0,273.0
21:36:27,2571.0,264.0,273.0
