Wed Apr 16 21:15:53 IST 2025
TimeStamp,ECG,PPG
21:15:53,-2275.0,273.0,281.0
21:15:53,-2275.0,273.0,281.0
21:15:53,-2265.0,272.0,283.0
21:15:53,-2265.0,272.0,283.0
21:15:53,-2265.0,272.0,283.0
21:15:53,-2265.0,272.0,283.0
21:15:53,-2236.0,272.0,282.0
21:15:53,-2236.0,272.0,282.0
21:15:53,-2236.0,272.0,282.0
21:15:53,-2236.0,272.0,282.0
21:15:53,-2309.0,271.0,282.0
21:15:53,-2309.0,271.0,282.0
21:15:53,-2309.0,271.0,282.0
21:15:53,-2309.0,271.0,282.0
21:15:53,-2308.0,271.0,282.0
21:15:53,-2308.0,271.0,282.0
21:15:53,-2308.0,271.0,282.0
21:15:53,-2308.0,271.0,282.0
21:15:53,-2416.0,272.0,283.0
21:15:53,-2416.0,272.0,283.0
21:15:53,-2416.0,272.0,283.0
21:15:53,-2416.0,272.0,283.0
21:15:53,-1746.0,271.0,282.0
21:15:53,-1746.0,271.0,282.0
21:15:53,-1746.0,271.0,282.0
21:15:53,-1746.0,271.0,282.0
21:15:53,-2285.0,273.0,283.0
21:15:53,-2285.0,273.0,283.0
21:15:53,-2285.0,273.0,283.0
21:15:53,-2285.0,273.0,283.0
21:15:53,-2392.0,271.0,283.0
21:15:53,-2392.0,271.0,283.0
21:15:53,-2392.0,271.0,283.0
21:15:53,-2392.0,271.0,283.0
21:15:53,-2375.0,272.0,284.0
21:15:53,-2375.0,272.0,284.0
21:15:53,-2375.0,272.0,284.0
21:15:53,-2375.0,272.0,284.0
21:15:53,-2373.0,273.0,283.0
21:15:53,-2373.0,273.0,283.0
21:15:53,-2373.0,273.0,283.0
21:15:53,-2373.0,273.0,283.0
21:15:53,-2348.0,273.0,283.0
21:15:53,-2348.0,273.0,283.0
21:15:53,-2348.0,273.0,283.0
21:15:53,-2348.0,273.0,283.0
21:15:53,-2359.0,274.0,282.0
21:15:53,-2359.0,274.0,282.0
21:15:53,-2359.0,274.0,282.0
21:15:53,-2359.0,274.0,282.0
21:15:53,-2310.0,272.0,284.0
21:15:53,-2310.0,272.0,284.0
21:15:53,-2310.0,272.0,284.0
21:15:53,-2310.0,272.0,284.0
21:15:53,-2315.0,273.0,284.0
21:15:53,-2315.0,273.0,284.0
21:15:53,-2315.0,273.0,284.0
21:15:53,-2315.0,273.0,284.0
21:15:53,-2322.0,273.0,283.0
21:15:53,-2322.0,273.0,283.0
21:15:53,-2322.0,273.0,283.0
21:15:53,-2322.0,273.0,283.0
21:15:53,-2302.0,273.0,284.0
21:15:53,-2302.0,273.0,284.0
21:15:53,-2302.0,273.0,284.0
21:15:53,-2302.0,273.0,284.0
21:15:53,-2366.0,272.0,285.0
21:15:53,-2366.0,272.0,285.0
21:15:53,-2366.0,272.0,285.0
21:15:53,-2366.0,272.0,285.0
21:15:53,-2406.0,274.0,283.0
21:15:53,-2406.0,274.0,283.0
21:15:53,-2406.0,274.0,283.0
21:15:53,-2406.0,274.0,283.0
21:15:53,-2493.0,273.0,283.0
21:15:53,-2493.0,273.0,283.0
21:15:53,-2493.0,273.0,283.0
21:15:53,-2493.0,273.0,283.0
21:15:53,-2508.0,273.0,282.0
21:15:53,-2508.0,273.0,282.0
21:15:53,-2508.0,273.0,282.0
21:15:53,-2508.0,273.0,282.0
21:15:53,-2562.0,273.0,283.0
21:15:53,-2562.0,273.0,283.0
21:15:53,-2562.0,273.0,283.0
21:15:53,-2562.0,273.0,283.0
21:15:53,-2550.0,273.0,283.0
21:15:53,-2550.0,273.0,283.0
21:15:53,-2550.0,273.0,283.0
21:15:53,-2550.0,273.0,283.0
21:15:53,-2589.0,273.0,283.0
21:15:53,-2589.0,273.0,283.0
21:15:53,-2589.0,273.0,283.0
21:15:53,-2589.0,273.0,283.0
21:15:53,-2593.0,273.0,283.0
21:15:53,-2593.0,273.0,283.0
21:15:53,-2593.0,273.0,283.0
21:15:53,-2593.0,273.0,283.0
21:15:53,-2623.0,273.0,284.0
21:15:53,-2623.0,273.0,284.0
21:15:53,-2623.0,273.0,284.0
21:15:53,-2623.0,273.0,284.0
21:15:53,-2633.0,273.0,284.0
21:15:53,-2633.0,273.0,284.0
21:15:53,-2633.0,273.0,284.0
21:15:53,-2633.0,273.0,284.0
21:15:53,-2683.0,274.0,285.0
21:15:53,-2683.0,274.0,285.0
21:15:53,-2683.0,274.0,285.0
21:15:53,-2683.0,274.0,285.0
21:15:53,-2697.0,274.0,284.0
21:15:53,-2697.0,274.0,284.0
21:15:53,-2697.0,274.0,284.0
21:15:53,-2697.0,274.0,284.0
21:15:53,-2730.0,274.0,283.0
21:15:53,-2730.0,274.0,283.0
21:15:53,-2730.0,274.0,283.0
21:15:53,-2730.0,274.0,283.0
21:15:53,-2752.0,273.0,284.0
21:15:53,-2752.0,273.0,284.0
21:15:53,-2752.0,273.0,284.0
21:15:53,-2752.0,273.0,284.0
21:15:53,-2779.0,274.0,285.0
21:15:53,-2779.0,274.0,285.0
21:15:53,-2779.0,274.0,285.0
21:15:53,-2779.0,274.0,285.0
21:15:53,-2823.0,275.0,285.0
21:15:54,-2823.0,275.0,285.0
21:15:54,-2823.0,275.0,285.0
21:15:54,-2823.0,275.0,285.0
21:15:54,-2816.0,274.0,284.0
21:15:54,-2816.0,274.0,284.0
21:15:54,-2816.0,274.0,284.0
21:15:54,-2816.0,274.0,284.0
21:15:54,-2858.0,273.0,284.0
21:15:54,-2858.0,273.0,284.0
21:15:54,-2858.0,273.0,284.0
21:15:54,-2858.0,273.0,284.0
21:15:54,-2875.0,274.0,283.0
21:15:54,-2875.0,274.0,283.0
21:15:54,-2875.0,274.0,283.0
21:15:54,-2875.0,274.0,283.0
21:15:54,-2935.0,275.0,283.0
21:15:54,-2935.0,275.0,283.0
21:15:54,-2935.0,275.0,283.0
21:15:54,-2935.0,275.0,283.0
21:15:54,-2948.0,274.0,283.0
21:15:54,-2948.0,274.0,283.0
21:15:54,-2948.0,274.0,283.0
21:15:54,-2948.0,274.0,283.0
21:15:54,-3091.0,273.0,284.0
21:15:54,-3091.0,273.0,284.0
21:15:54,-3091.0,273.0,284.0
21:15:54,-3091.0,273.0,284.0
21:15:54,-2777.0,274.0,284.0
21:15:54,-2777.0,274.0,284.0
21:15:54,-2777.0,274.0,284.0
21:15:54,-2777.0,274.0,284.0
21:15:54,-2456.0,274.0,284.0
21:15:54,-2456.0,274.0,284.0
21:15:54,-2456.0,274.0,284.0
21:15:54,-2456.0,274.0,284.0
21:15:54,-3200.0,274.0,284.0
21:15:54,-3200.0,274.0,284.0
21:15:54,-3200.0,274.0,284.0
21:15:54,-3200.0,274.0,284.0
21:15:54,-3116.0,274.0,285.0
21:15:54,-3116.0,274.0,285.0
21:15:54,-3116.0,274.0,285.0
21:15:54,-3116.0,274.0,285.0
21:15:54,-3135.0,274.0,285.0
21:15:54,-3135.0,274.0,285.0
21:15:54,-3135.0,274.0,285.0
21:15:54,-3135.0,274.0,285.0
21:15:54,-3135.0,275.0,285.0
21:15:54,-3135.0,275.0,285.0
21:15:54,-3135.0,275.0,285.0
21:15:54,-3135.0,275.0,285.0
21:15:54,-3161.0,275.0,285.0
21:15:54,-3161.0,275.0,285.0
21:15:54,-3161.0,275.0,285.0
21:15:54,-3161.0,275.0,285.0
21:15:54,-3138.0,275.0,284.0
21:15:54,-3138.0,275.0,284.0
21:15:54,-3138.0,275.0,284.0
21:15:54,-3138.0,275.0,284.0
21:15:54,-3154.0,274.0,284.0
21:15:54,-3154.0,274.0,284.0
21:15:54,-3154.0,274.0,284.0
21:15:54,-3154.0,274.0,284.0
21:15:54,-3144.0,274.0,284.0
21:15:54,-3144.0,274.0,284.0
21:15:54,-3144.0,274.0,284.0
21:15:54,-3144.0,274.0,284.0
21:15:54,-3111.0,274.0,285.0
21:15:54,-3111.0,274.0,285.0
21:15:54,-3111.0,274.0,285.0
21:15:54,-3111.0,274.0,285.0
21:15:54,-3155.0,275.0,284.0
21:15:54,-3155.0,275.0,284.0
21:15:54,-3155.0,275.0,284.0
21:15:54,-3155.0,275.0,284.0
21:15:54,-3191.0,274.0,285.0
21:15:54,-3191.0,274.0,285.0
21:15:54,-3191.0,274.0,285.0
21:15:54,-3191.0,274.0,285.0
21:15:54,-3229.0,275.0,284.0
21:15:54,-3229.0,275.0,284.0
21:15:54,-3229.0,275.0,284.0
21:15:54,-3229.0,275.0,284.0
21:15:54,-3279.0,275.0,284.0
21:15:54,-3279.0,275.0,284.0
21:15:54,-3279.0,275.0,284.0
21:15:54,-3279.0,275.0,284.0
21:15:54,-3312.0,274.0,284.0
21:15:54,-3312.0,274.0,284.0
21:15:54,-3312.0,274.0,284.0
21:15:54,-3312.0,274.0,284.0
21:15:54,-3287.0,274.0,283.0
21:15:54,-3287.0,274.0,283.0
21:15:54,-3287.0,274.0,283.0
21:15:54,-3287.0,274.0,283.0
21:15:54,-3272.0,275.0,283.0
21:15:54,-3272.0,275.0,283.0
21:15:54,-3272.0,275.0,283.0
21:15:54,-3272.0,275.0,283.0
21:15:54,-3257.0,273.0,285.0
21:15:54,-3257.0,273.0,285.0
21:15:54,-3257.0,273.0,285.0
21:15:54,-3257.0,273.0,285.0
21:15:54,-3245.0,274.0,285.0
21:15:54,-3245.0,274.0,285.0
21:15:54,-3245.0,274.0,285.0
21:15:54,-3245.0,274.0,285.0
21:15:54,-3212.0,275.0,283.0
21:15:54,-3212.0,275.0,283.0
21:15:54,-3212.0,275.0,283.0
21:15:54,-3212.0,275.0,283.0
21:15:54,-3198.0,275.0,283.0
21:15:54,-3198.0,275.0,283.0
21:15:54,-3198.0,275.0,283.0
21:15:54,-3198.0,275.0,283.0
21:15:54,-3158.0,275.0,285.0
21:15:54,-3158.0,275.0,285.0
21:15:54,-3158.0,275.0,285.0
21:15:54,-3158.0,275.0,285.0
21:15:54,-3211.0,274.0,285.0
21:15:54,-3211.0,274.0,285.0
21:15:54,-3211.0,274.0,285.0
21:15:54,-3211.0,274.0,285.0
21:15:54,-3149.0,275.0,284.0
21:15:54,-3149.0,275.0,284.0
21:15:54,-3149.0,275.0,284.0
21:15:54,-3149.0,275.0,284.0
21:15:54,-3095.0,274.0,284.0
21:15:54,-3095.0,274.0,284.0
21:15:54,-3095.0,274.0,284.0
21:15:54,-3095.0,274.0,284.0
21:15:54,-3037.0,276.0,284.0
21:15:54,-3037.0,276.0,284.0
21:15:54,-3037.0,276.0,284.0
21:15:54,-3037.0,276.0,284.0
21:15:54,-3011.0,275.0,284.0
21:15:54,-3011.0,275.0,284.0
21:15:54,-3011.0,275.0,284.0
21:15:54,-3011.0,275.0,284.0
21:15:54,-2967.0,275.0,285.0
21:15:54,-2967.0,275.0,285.0
21:15:54,-2967.0,275.0,285.0
21:15:54,-2967.0,275.0,285.0
21:15:54,-2919.0,274.0,284.0
21:15:54,-2919.0,274.0,284.0
21:15:54,-2919.0,274.0,284.0
21:15:54,-2919.0,274.0,284.0
21:15:54,-2857.0,274.0,284.0
21:15:54,-2857.0,274.0,284.0
21:15:54,-2857.0,274.0,284.0
21:15:54,-2857.0,274.0,284.0
21:15:54,-2844.0,274.0,285.0
21:15:54,-2844.0,274.0,285.0
21:15:54,-2844.0,274.0,285.0
21:15:54,-2844.0,274.0,285.0
21:15:54,-2825.0,274.0,284.0
21:15:54,-2825.0,274.0,284.0
21:15:54,-2825.0,274.0,284.0
21:15:54,-2825.0,274.0,284.0
21:15:54,-2899.0,274.0,283.0
21:15:54,-2899.0,274.0,283.0
21:15:54,-2899.0,274.0,283.0
21:15:54,-2899.0,274.0,283.0
21:15:54,-1969.0,276.0,285.0
21:15:54,-1969.0,276.0,285.0
21:15:54,-1969.0,276.0,285.0
21:15:54,-1969.0,276.0,285.0
21:15:54,-2772.0,275.0,284.0
21:15:54,-2772.0,275.0,284.0
21:15:54,-2772.0,275.0,284.0
21:15:54,-2772.0,275.0,284.0
21:15:54,-2748.0,275.0,284.0
21:15:54,-2748.0,275.0,284.0
21:15:54,-2748.0,275.0,284.0
21:15:54,-2748.0,275.0,284.0
21:15:54,-2712.0,273.0,285.0
21:15:54,-2712.0,273.0,285.0
21:15:54,-2712.0,273.0,285.0
21:15:54,-2712.0,273.0,285.0
21:15:54,-2686.0,275.0,284.0
21:15:54,-2686.0,275.0,284.0
21:15:54,-2686.0,275.0,284.0
21:15:54,-2686.0,275.0,284.0
21:15:54,-2670.0,274.0,284.0
21:15:54,-2670.0,274.0,284.0
21:15:54,-2670.0,274.0,284.0
21:15:54,-2670.0,274.0,284.0
21:15:54,-2639.0,276.0,285.0
21:15:54,-2639.0,276.0,285.0
21:15:54,-2639.0,276.0,285.0
21:15:54,-2639.0,276.0,285.0
21:15:54,-2601.0,275.0,283.0
21:15:54,-2601.0,275.0,283.0
21:15:54,-2601.0,275.0,283.0
21:15:54,-2601.0,275.0,283.0
21:15:54,-2589.0,275.0,284.0
21:15:54,-2589.0,275.0,284.0
21:15:54,-2589.0,275.0,284.0
21:15:54,-2589.0,275.0,284.0
21:15:54,-2521.0,276.0,283.0
21:15:54,-2521.0,276.0,283.0
21:15:55,-2521.0,276.0,283.0
21:15:55,-2521.0,276.0,283.0
21:15:55,-2492.0,274.0,285.0
21:15:55,-2492.0,274.0,285.0
21:15:55,-2492.0,274.0,285.0
21:15:55,-2492.0,274.0,285.0
21:15:55,-2533.0,275.0,283.0
21:15:55,-2533.0,275.0,283.0
21:15:55,-2533.0,275.0,283.0
21:15:55,-2533.0,275.0,283.0
21:15:55,-2586.0,274.0,284.0
21:15:55,-2586.0,274.0,284.0
21:15:55,-2586.0,274.0,284.0
21:15:55,-2586.0,274.0,284.0
21:15:55,-2639.0,275.0,283.0
21:15:55,-2639.0,275.0,283.0
21:15:55,-2639.0,275.0,283.0
21:15:55,-2639.0,275.0,283.0
21:15:55,-2668.0,274.0,283.0
21:15:55,-2668.0,274.0,283.0
21:15:55,-2668.0,274.0,283.0
21:15:55,-2668.0,274.0,283.0
21:15:55,-2661.0,274.0,285.0
21:15:55,-2661.0,274.0,285.0
21:15:55,-2661.0,274.0,285.0
21:15:55,-2661.0,274.0,285.0
21:15:55,-2646.0,274.0,283.0
21:15:55,-2646.0,274.0,283.0
21:15:55,-2646.0,274.0,283.0
21:15:55,-2646.0,274.0,283.0
21:15:55,-2636.0,274.0,284.0
21:15:55,-2636.0,274.0,284.0
21:15:55,-2636.0,274.0,284.0
21:15:55,-2636.0,274.0,284.0
21:15:55,-2643.0,275.0,283.0
21:15:55,-2643.0,275.0,283.0
21:15:55,-2643.0,275.0,283.0
21:15:55,-2643.0,275.0,283.0
21:15:55,-2634.0,274.0,284.0
21:15:55,-2634.0,274.0,284.0
21:15:55,-2634.0,274.0,284.0
21:15:55,-2634.0,274.0,284.0
21:15:55,-2631.0,275.0,284.0
21:15:55,-2631.0,275.0,284.0
21:15:55,-2631.0,275.0,284.0
21:15:55,-2631.0,275.0,284.0
21:15:55,-2647.0,274.0,283.0
21:15:55,-2647.0,274.0,283.0
21:15:55,-2647.0,274.0,283.0
21:15:55,-2647.0,274.0,283.0
21:15:55,-2630.0,274.0,284.0
21:15:55,-2630.0,274.0,284.0
21:15:55,-2630.0,274.0,284.0
21:15:55,-2630.0,274.0,284.0
21:15:55,-2644.0,275.0,284.0
21:15:55,-2644.0,275.0,284.0
21:15:55,-2644.0,275.0,284.0
21:15:55,-2644.0,275.0,284.0
21:15:55,-2643.0,274.0,283.0
21:15:55,-2643.0,274.0,283.0
21:15:55,-2643.0,274.0,283.0
21:15:55,-2643.0,274.0,283.0
21:15:55,-2631.0,275.0,283.0
21:15:55,-2631.0,275.0,283.0
21:15:55,-2631.0,275.0,283.0
21:15:55,-2631.0,275.0,283.0
21:15:55,-2605.0,273.0,283.0
21:15:55,-2605.0,273.0,283.0
21:15:55,-2605.0,273.0,283.0
21:15:55,-2605.0,273.0,283.0
21:15:55,-2606.0,274.0,283.0
21:15:55,-2606.0,274.0,283.0
21:15:55,-2606.0,274.0,283.0
21:15:55,-2606.0,274.0,283.0
21:15:55,-2620.0,274.0,283.0
21:15:55,-2620.0,274.0,283.0
21:15:55,-2620.0,274.0,283.0
21:15:55,-2620.0,274.0,283.0
21:15:55,-2578.0,274.0,283.0
21:15:55,-2578.0,274.0,283.0
21:15:55,-2578.0,274.0,283.0
21:15:55,-2578.0,274.0,283.0
21:15:55,-2607.0,273.0,283.0
21:15:55,-2607.0,273.0,283.0
21:15:55,-2607.0,273.0,283.0
21:15:55,-2607.0,273.0,283.0
21:15:55,-2607.0,275.0,283.0
21:15:55,-2607.0,275.0,283.0
21:15:55,-2607.0,275.0,283.0
21:15:55,-2607.0,275.0,283.0
21:15:55,-2734.0,275.0,283.0
21:15:55,-2734.0,275.0,283.0
21:15:55,-2734.0,275.0,283.0
21:15:55,-2734.0,275.0,283.0
21:15:55,-1852.0,274.0,282.0
21:15:55,-1852.0,274.0,282.0
21:15:55,-1852.0,274.0,282.0
21:15:55,-1852.0,274.0,282.0
21:15:55,-2606.0,273.0,282.0
21:15:55,-2606.0,273.0,282.0
21:15:55,-2606.0,273.0,282.0
21:15:55,-2606.0,273.0,282.0
21:15:55,-2650.0,273.0,284.0
21:15:55,-2650.0,273.0,284.0
21:15:55,-2650.0,273.0,284.0
21:15:55,-2650.0,273.0,284.0
21:15:55,-2626.0,273.0,282.0
21:15:55,-2626.0,273.0,282.0
21:15:55,-2626.0,273.0,282.0
21:15:55,-2626.0,273.0,282.0
21:15:55,-2620.0,273.0,283.0
21:15:55,-2620.0,273.0,283.0
21:15:55,-2620.0,273.0,283.0
21:15:55,-2620.0,273.0,283.0
21:15:55,-2602.0,273.0,282.0
21:15:55,-2602.0,273.0,282.0
21:15:55,-2602.0,273.0,282.0
21:15:55,-2602.0,273.0,282.0
21:15:55,-2602.0,273.0,283.0
21:15:55,-2602.0,273.0,283.0
21:15:55,-2602.0,273.0,283.0
21:15:55,-2602.0,273.0,283.0
21:15:55,-2574.0,274.0,282.0
21:15:55,-2574.0,274.0,282.0
21:15:55,-2574.0,274.0,282.0
21:15:55,-2574.0,274.0,282.0
21:15:55,-2558.0,273.0,283.0
21:15:55,-2558.0,273.0,283.0
21:15:55,-2558.0,273.0,283.0
21:15:55,-2558.0,273.0,283.0
21:15:55,-2538.0,273.0,283.0
21:15:55,-2538.0,273.0,283.0
21:15:55,-2538.0,273.0,283.0
21:15:55,-2538.0,273.0,283.0
21:15:55,-2545.0,272.0,283.0
21:15:55,-2545.0,272.0,283.0
21:15:55,-2545.0,272.0,283.0
21:15:55,-2545.0,272.0,283.0
21:15:55,-2576.0,273.0,282.0
21:15:55,-2576.0,273.0,282.0
21:15:55,-2576.0,273.0,282.0
21:15:55,-2576.0,273.0,282.0
21:15:55,-2622.0,272.0,281.0
21:15:55,-2622.0,272.0,281.0
21:15:55,-2622.0,272.0,281.0
21:15:55,-2622.0,272.0,281.0
21:15:55,-2671.0,273.0,282.0
21:15:55,-2671.0,273.0,282.0
21:15:55,-2671.0,273.0,282.0
21:15:55,-2671.0,273.0,282.0
21:15:55,-2702.0,272.0,283.0
21:15:55,-2702.0,272.0,283.0
21:15:55,-2702.0,272.0,283.0
21:15:55,-2702.0,272.0,283.0
21:15:55,-2690.0,272.0,281.0
21:15:55,-2690.0,272.0,281.0
21:15:55,-2690.0,272.0,281.0
21:15:55,-2690.0,272.0,281.0
21:15:55,-2707.0,272.0,281.0
21:15:55,-2707.0,272.0,281.0
21:15:55,-2707.0,272.0,281.0
21:15:55,-2707.0,272.0,281.0
21:15:55,-2713.0,272.0,281.0
21:15:55,-2713.0,272.0,281.0
21:15:55,-2713.0,272.0,281.0
21:15:55,-2713.0,272.0,281.0
21:15:55,-2697.0,271.0,281.0
21:15:55,-2697.0,271.0,281.0
21:15:55,-2697.0,271.0,281.0
21:15:55,-2697.0,271.0,281.0
21:15:55,-2713.0,272.0,281.0
21:15:55,-2713.0,272.0,281.0
21:15:55,-2713.0,272.0,281.0
21:15:55,-2713.0,272.0,281.0
21:15:55,-2749.0,273.0,282.0
21:15:55,-2749.0,273.0,282.0
21:15:55,-2749.0,273.0,282.0
21:15:55,-2749.0,273.0,282.0
21:15:55,-2730.0,272.0,283.0
21:15:55,-2730.0,272.0,283.0
21:15:55,-2730.0,272.0,283.0
21:15:55,-2730.0,272.0,283.0
21:15:55,-2723.0,273.0,282.0
21:15:55,-2723.0,273.0,282.0
21:15:55,-2723.0,273.0,282.0
21:15:55,-2723.0,273.0,282.0
21:15:55,-2756.0,272.0,282.0
21:15:55,-2756.0,272.0,282.0
21:15:55,-2756.0,272.0,282.0
21:15:55,-2756.0,272.0,282.0
21:15:55,-2725.0,273.0,283.0
21:15:55,-2725.0,273.0,283.0
21:15:55,-2725.0,273.0,283.0
21:15:55,-2725.0,273.0,283.0
21:15:55,-2731.0,272.0,281.0
21:15:55,-2731.0,272.0,281.0
21:15:55,-2731.0,272.0,281.0
21:15:55,-2731.0,272.0,281.0
21:15:55,-2760.0,272.0,281.0
21:15:55,-2760.0,272.0,281.0
21:15:56,-2760.0,272.0,281.0
21:15:56,-2760.0,272.0,281.0
21:15:56,-2699.0,272.0,282.0
21:15:56,-2699.0,272.0,282.0
21:15:56,-2699.0,272.0,282.0
21:15:56,-2699.0,272.0,282.0
21:15:56,-2739.0,272.0,281.0
21:15:56,-2739.0,272.0,281.0
21:15:56,-2739.0,272.0,281.0
21:15:56,-2739.0,272.0,281.0
21:15:56,-2748.0,273.0,282.0
21:15:56,-2748.0,273.0,282.0
21:15:56,-2748.0,273.0,282.0
21:15:56,-2748.0,273.0,282.0
21:15:56,-2906.0,273.0,281.0
21:15:56,-2906.0,273.0,281.0
21:15:56,-2906.0,273.0,281.0
21:15:56,-2906.0,273.0,281.0
21:15:56,-2062.0,272.0,282.0
21:15:56,-2062.0,272.0,282.0
21:15:56,-2062.0,272.0,282.0
21:15:56,-2062.0,272.0,282.0
21:15:56,-2708.0,273.0,282.0
21:15:56,-2708.0,273.0,282.0
21:15:56,-2708.0,273.0,282.0
21:15:56,-2708.0,273.0,282.0
21:15:56,-2747.0,272.0,282.0
21:15:56,-2747.0,272.0,282.0
21:15:56,-2747.0,272.0,282.0
21:15:56,-2747.0,272.0,282.0
21:15:56,-2742.0,272.0,282.0
21:15:56,-2742.0,272.0,282.0
21:15:56,-2742.0,272.0,282.0
21:15:56,-2742.0,272.0,282.0
21:15:56,-2694.0,271.0,283.0
21:15:56,-2694.0,271.0,283.0
21:15:56,-2694.0,271.0,283.0
21:15:56,-2694.0,271.0,283.0
21:15:56,-2685.0,272.0,282.0
21:15:56,-2685.0,272.0,282.0
21:15:56,-2685.0,272.0,282.0
21:15:56,-2685.0,272.0,282.0
21:15:56,-2693.0,272.0,282.0
21:15:56,-2693.0,272.0,282.0
21:15:56,-2693.0,272.0,282.0
21:15:56,-2693.0,272.0,282.0
21:15:56,-2665.0,272.0,283.0
21:15:56,-2665.0,272.0,283.0
21:15:56,-2665.0,272.0,283.0
21:15:56,-2665.0,272.0,283.0
21:15:56,-2683.0,272.0,281.0
21:15:56,-2683.0,272.0,281.0
21:15:56,-2683.0,272.0,281.0
21:15:56,-2683.0,272.0,281.0
21:15:56,-2627.0,272.0,283.0
21:15:56,-2627.0,272.0,283.0
21:15:56,-2627.0,272.0,283.0
21:15:56,-2627.0,272.0,283.0
21:15:56,-2566.0,272.0,283.0
21:15:56,-2566.0,272.0,283.0
21:15:56,-2566.0,272.0,283.0
21:15:56,-2566.0,272.0,283.0
21:15:56,-2628.0,273.0,282.0
21:15:56,-2628.0,273.0,282.0
21:15:56,-2628.0,273.0,282.0
21:15:56,-2628.0,273.0,282.0
21:15:56,-2683.0,273.0,282.0
21:15:56,-2683.0,273.0,282.0
21:15:56,-2683.0,273.0,282.0
21:15:56,-2683.0,273.0,282.0
21:15:56,-2756.0,272.0,283.0
21:15:56,-2756.0,272.0,283.0
21:15:56,-2756.0,272.0,283.0
21:15:56,-2756.0,272.0,283.0
21:15:56,-2737.0,272.0,282.0
21:15:56,-2737.0,272.0,282.0
21:15:56,-2737.0,272.0,282.0
21:15:56,-2737.0,272.0,282.0
21:15:56,-2725.0,272.0,282.0
21:15:56,-2725.0,272.0,282.0
21:15:56,-2725.0,272.0,282.0
21:15:56,-2725.0,272.0,282.0
21:15:56,-2758.0,271.0,280.0
21:15:56,-2758.0,271.0,280.0
21:15:56,-2758.0,271.0,280.0
21:15:56,-2758.0,271.0,280.0
21:15:56,-2738.0,272.0,281.0
21:15:56,-2738.0,272.0,281.0
21:15:56,-2738.0,272.0,281.0
21:15:56,-2738.0,272.0,281.0
21:15:56,-2724.0,271.0,281.0
21:15:56,-2724.0,271.0,281.0
21:15:56,-2724.0,271.0,281.0
21:15:56,-2724.0,271.0,281.0
21:15:56,-2758.0,272.0,281.0
21:15:56,-2758.0,272.0,281.0
21:15:56,-2758.0,272.0,281.0
21:15:56,-2758.0,272.0,281.0
21:15:56,-2680.0,272.0,281.0
21:15:56,-2680.0,272.0,281.0
21:15:56,-2680.0,272.0,281.0
21:15:56,-2680.0,272.0,281.0
21:15:56,-2711.0,272.0,282.0
21:15:56,-2711.0,272.0,282.0
21:15:56,-2711.0,272.0,282.0
21:15:56,-2711.0,272.0,282.0
21:15:56,-2671.0,273.0,281.0
21:15:56,-2671.0,273.0,281.0
21:15:56,-2671.0,273.0,281.0
21:15:56,-2671.0,273.0,281.0
21:15:56,-2639.0,270.0,282.0
21:15:56,-2639.0,270.0,282.0
21:15:56,-2639.0,270.0,282.0
21:15:56,-2639.0,270.0,282.0
21:15:56,-2620.0,272.0,283.0
21:15:56,-2620.0,272.0,283.0
21:15:56,-2620.0,272.0,283.0
21:15:56,-2620.0,272.0,283.0
21:15:56,-2582.0,273.0,283.0
21:15:56,-2582.0,273.0,283.0
21:15:56,-2582.0,273.0,283.0
21:15:56,-2582.0,273.0,283.0
21:15:56,-2654.0,273.0,283.0
21:15:56,-2654.0,273.0,283.0
21:15:56,-2654.0,273.0,283.0
21:15:56,-2654.0,273.0,283.0
21:15:56,-2626.0,273.0,282.0
21:15:56,-2626.0,273.0,282.0
21:15:56,-2626.0,273.0,282.0
21:15:56,-2626.0,273.0,282.0
21:15:56,-2754.0,272.0,282.0
21:15:56,-2754.0,272.0,282.0
21:15:56,-2754.0,272.0,282.0
21:15:56,-2754.0,272.0,282.0
21:15:56,-2441.0,272.0,282.0
21:15:56,-2441.0,272.0,282.0
21:15:56,-2441.0,272.0,282.0
21:15:56,-2441.0,272.0,282.0
21:15:56,-2011.0,273.0,282.0
21:15:56,-2011.0,273.0,282.0
21:15:56,-2011.0,273.0,282.0
21:15:56,-2011.0,273.0,282.0
21:15:56,-2747.0,272.0,282.0
21:15:56,-2747.0,272.0,282.0
21:15:56,-2747.0,272.0,282.0
21:15:56,-2747.0,272.0,282.0
21:15:56,-2654.0,272.0,284.0
21:15:56,-2654.0,272.0,284.0
21:15:56,-2654.0,272.0,284.0
21:15:56,-2654.0,272.0,284.0
21:15:56,-2622.0,273.0,283.0
21:15:56,-2622.0,273.0,283.0
21:15:56,-2622.0,273.0,283.0
21:15:56,-2622.0,273.0,283.0
21:15:56,-2616.0,272.0,284.0
21:15:56,-2616.0,272.0,284.0
21:15:56,-2616.0,272.0,284.0
21:15:56,-2616.0,272.0,284.0
21:15:56,-2625.0,274.0,283.0
21:15:56,-2625.0,274.0,283.0
21:15:56,-2625.0,274.0,283.0
21:15:56,-2625.0,274.0,283.0
21:15:56,-2578.0,273.0,284.0
21:15:56,-2578.0,273.0,284.0
21:15:56,-2578.0,273.0,284.0
21:15:56,-2578.0,273.0,284.0
21:15:56,-2534.0,273.0,283.0
21:15:56,-2534.0,273.0,283.0
21:15:56,-2534.0,273.0,283.0
21:15:56,-2534.0,273.0,283.0
21:15:56,-2503.0,274.0,284.0
21:15:56,-2503.0,274.0,284.0
21:15:56,-2503.0,274.0,284.0
21:15:56,-2503.0,274.0,284.0
21:15:56,-2461.0,273.0,282.0
21:15:56,-2461.0,273.0,282.0
21:15:56,-2461.0,273.0,282.0
21:15:56,-2461.0,273.0,282.0
21:15:56,-2467.0,274.0,283.0
21:15:56,-2467.0,274.0,283.0
21:15:56,-2467.0,274.0,283.0
21:15:56,-2467.0,274.0,283.0
21:15:56,-2501.0,274.0,283.0
21:15:56,-2501.0,274.0,283.0
21:15:56,-2501.0,274.0,283.0
21:15:56,-2501.0,274.0,283.0
21:15:56,-2515.0,275.0,284.0
21:15:56,-2515.0,275.0,284.0
21:15:56,-2515.0,275.0,284.0
21:15:56,-2515.0,275.0,284.0
21:15:56,-2542.0,273.0,283.0
21:15:56,-2542.0,273.0,283.0
21:15:56,-2542.0,273.0,283.0
21:15:56,-2542.0,273.0,283.0
21:15:56,-2539.0,274.0,284.0
21:15:56,-2539.0,274.0,284.0
21:15:56,-2539.0,274.0,284.0
21:15:56,-2539.0,274.0,284.0
21:15:56,-2542.0,274.0,283.0
21:15:56,-2542.0,274.0,283.0
21:15:56,-2542.0,274.0,283.0
21:15:57,-2542.0,274.0,283.0
21:15:57,-2494.0,274.0,285.0
21:15:57,-2494.0,274.0,285.0
21:15:57,-2494.0,274.0,285.0
21:15:57,-2494.0,274.0,285.0
21:15:57,-2483.0,273.0,282.0
21:15:57,-2483.0,273.0,282.0
21:15:57,-2483.0,273.0,282.0
21:15:57,-2483.0,273.0,282.0
21:15:57,-2507.0,273.0,283.0
21:15:57,-2507.0,273.0,283.0
21:15:57,-2507.0,273.0,283.0
21:15:57,-2507.0,273.0,283.0
21:15:57,-2477.0,273.0,283.0
21:15:57,-2477.0,273.0,283.0
21:15:57,-2477.0,273.0,283.0
21:15:57,-2477.0,273.0,283.0
21:15:57,-2484.0,273.0,284.0
21:15:57,-2484.0,273.0,284.0
21:15:57,-2484.0,273.0,284.0
21:15:57,-2484.0,273.0,284.0
21:15:57,-2438.0,274.0,283.0
21:15:57,-2438.0,274.0,283.0
21:15:57,-2438.0,274.0,283.0
21:15:57,-2438.0,274.0,283.0
21:15:57,-2410.0,275.0,283.0
21:15:57,-2410.0,275.0,283.0
21:15:57,-2410.0,275.0,283.0
21:15:57,-2410.0,275.0,283.0
21:15:57,-2440.0,275.0,284.0
21:15:57,-2440.0,275.0,284.0
21:15:57,-2440.0,275.0,284.0
21:15:57,-2440.0,275.0,284.0
21:15:57,-2356.0,274.0,284.0
21:15:57,-2356.0,274.0,284.0
21:15:57,-2356.0,274.0,284.0
21:15:57,-2356.0,274.0,284.0
21:15:57,-2385.0,276.0,285.0
21:15:57,-2385.0,276.0,285.0
21:15:57,-2385.0,276.0,285.0
21:15:57,-2385.0,276.0,285.0
21:15:57,-2399.0,274.0,285.0
21:15:57,-2399.0,274.0,285.0
21:15:57,-2399.0,274.0,285.0
21:15:57,-2399.0,274.0,285.0
21:15:57,-2524.0,275.0,283.0
21:15:57,-2524.0,275.0,283.0
21:15:57,-2524.0,275.0,283.0
21:15:57,-2524.0,275.0,283.0
21:15:57,-1941.0,273.0,283.0
21:15:57,-1941.0,273.0,283.0
21:15:57,-1941.0,273.0,283.0
21:15:57,-1941.0,273.0,283.0
21:15:57,-2123.0,274.0,284.0
21:15:57,-2123.0,274.0,284.0
21:15:57,-2123.0,274.0,284.0
21:15:57,-2123.0,274.0,284.0
21:15:57,-2400.0,275.0,282.0
21:15:57,-2400.0,275.0,282.0
21:15:57,-2400.0,275.0,282.0
21:15:57,-2400.0,275.0,282.0
21:15:57,-2304.0,273.0,284.0
21:15:57,-2304.0,273.0,284.0
21:15:57,-2304.0,273.0,284.0
21:15:57,-2304.0,273.0,284.0
21:15:57,-2353.0,274.0,283.0
21:15:57,-2353.0,274.0,283.0
21:15:57,-2353.0,274.0,283.0
21:15:57,-2353.0,274.0,283.0
21:15:57,-2293.0,273.0,285.0
21:15:57,-2293.0,273.0,285.0
21:15:57,-2293.0,273.0,285.0
21:15:57,-2293.0,273.0,285.0
21:15:57,-2275.0,274.0,285.0
21:15:57,-2275.0,274.0,285.0
21:15:57,-2275.0,274.0,285.0
21:15:57,-2275.0,274.0,285.0
21:15:57,-2266.0,274.0,285.0
21:15:57,-2266.0,274.0,285.0
21:15:57,-2266.0,274.0,285.0
21:15:57,-2266.0,274.0,285.0
21:15:57,-2239.0,274.0,285.0
21:15:57,-2239.0,274.0,285.0
21:15:57,-2239.0,274.0,285.0
21:15:57,-2239.0,274.0,285.0
21:15:57,-2198.0,274.0,285.0
21:15:57,-2198.0,274.0,285.0
21:15:57,-2198.0,274.0,285.0
21:15:57,-2198.0,274.0,285.0
21:15:57,-2210.0,274.0,285.0
21:15:57,-2210.0,274.0,285.0
21:15:57,-2210.0,274.0,285.0
21:15:57,-2210.0,274.0,285.0
21:15:57,-2201.0,275.0,284.0
21:15:57,-2201.0,275.0,284.0
21:15:57,-2201.0,275.0,284.0
21:15:57,-2201.0,275.0,284.0
21:15:57,-2234.0,275.0,284.0
21:15:57,-2234.0,275.0,284.0
21:15:57,-2234.0,275.0,284.0
21:15:57,-2234.0,275.0,284.0
21:15:57,-2273.0,274.0,285.0
21:15:57,-2273.0,274.0,285.0
21:15:57,-2273.0,274.0,285.0
21:15:57,-2273.0,274.0,285.0
21:15:57,-2263.0,274.0,284.0
21:15:57,-2263.0,274.0,284.0
21:15:57,-2263.0,274.0,284.0
21:15:57,-2263.0,274.0,284.0
21:15:57,-2258.0,275.0,284.0
21:15:57,-2258.0,275.0,284.0
21:15:57,-2258.0,275.0,284.0
21:15:57,-2258.0,275.0,284.0
21:15:57,-2253.0,276.0,284.0
21:15:57,-2253.0,276.0,284.0
21:15:57,-2253.0,276.0,284.0
21:15:57,-2253.0,276.0,284.0
21:15:57,-2213.0,275.0,284.0
21:15:57,-2213.0,275.0,284.0
21:15:57,-2213.0,275.0,284.0
21:15:57,-2213.0,275.0,284.0
21:15:57,-2214.0,275.0,284.0
21:15:57,-2214.0,275.0,284.0
21:15:57,-2214.0,275.0,284.0
21:15:57,-2214.0,275.0,284.0
21:15:57,-2234.0,275.0,286.0
21:15:57,-2234.0,275.0,286.0
21:15:57,-2234.0,275.0,286.0
21:15:57,-2234.0,275.0,286.0
21:15:57,-2200.0,275.0,284.0
21:15:57,-2200.0,275.0,284.0
21:15:57,-2200.0,275.0,284.0
21:15:57,-2200.0,275.0,284.0
21:15:57,-2179.0,275.0,284.0
21:15:57,-2179.0,275.0,284.0
21:15:57,-2179.0,275.0,284.0
21:15:57,-2179.0,275.0,284.0
21:15:57,-2206.0,274.0,284.0
21:15:57,-2206.0,274.0,284.0
21:15:57,-2206.0,274.0,284.0
21:15:57,-2206.0,274.0,284.0
21:15:57,-2157.0,275.0,285.0
21:15:57,-2157.0,275.0,285.0
21:15:57,-2157.0,275.0,285.0
21:15:57,-2157.0,275.0,285.0
21:15:57,-2164.0,276.0,285.0
21:15:57,-2164.0,276.0,285.0
21:15:57,-2164.0,276.0,285.0
21:15:57,-2164.0,276.0,285.0
21:15:57,-2142.0,275.0,285.0
21:15:57,-2142.0,275.0,285.0
21:15:57,-2142.0,275.0,285.0
21:15:57,-2142.0,275.0,285.0
21:15:57,-2185.0,274.0,285.0
21:15:57,-2185.0,274.0,285.0
21:15:57,-2185.0,274.0,285.0
21:15:57,-2185.0,274.0,285.0
21:15:57,-2142.0,275.0,285.0
21:15:57,-2142.0,275.0,285.0
21:15:57,-2142.0,275.0,285.0
21:15:57,-2142.0,275.0,285.0
21:15:57,-2213.0,275.0,285.0
21:15:57,-2213.0,275.0,285.0
21:15:57,-2213.0,275.0,285.0
21:15:57,-2213.0,275.0,285.0
21:15:57,-2059.0,275.0,285.0
21:15:57,-2059.0,275.0,285.0
21:15:57,-2059.0,275.0,285.0
21:15:57,-2059.0,275.0,285.0
21:15:57,-1563.0,275.0,285.0
21:15:57,-1563.0,275.0,285.0
21:15:57,-1563.0,275.0,285.0
21:15:57,-1563.0,275.0,285.0
21:15:57,-2204.0,275.0,284.0
21:15:57,-2204.0,275.0,284.0
21:15:57,-2204.0,275.0,284.0
21:15:57,-2204.0,275.0,284.0
21:15:57,-2118.0,275.0,284.0
21:15:57,-2118.0,275.0,284.0
21:15:57,-2118.0,275.0,284.0
21:15:57,-2118.0,275.0,284.0
21:15:57,-2104.0,274.0,283.0
21:15:57,-2104.0,274.0,283.0
21:15:57,-2104.0,274.0,283.0
21:15:57,-2104.0,274.0,283.0
21:15:57,-2087.0,276.0,284.0
21:15:57,-2087.0,276.0,284.0
21:15:57,-2087.0,276.0,284.0
21:15:57,-2087.0,276.0,284.0
21:15:57,-2075.0,275.0,285.0
21:15:57,-2075.0,275.0,285.0
21:15:57,-2075.0,275.0,285.0
21:15:57,-2075.0,275.0,285.0
21:15:57,-2070.0,275.0,284.0
21:15:57,-2070.0,275.0,284.0
21:15:57,-2070.0,275.0,284.0
21:15:57,-2070.0,275.0,284.0
21:15:57,-2056.0,274.0,285.0
21:15:57,-2056.0,274.0,285.0
21:15:57,-2056.0,274.0,285.0
21:15:57,-2056.0,274.0,285.0
21:15:58,-2040.0,274.0,286.0
21:15:58,-2040.0,274.0,286.0
21:15:58,-2040.0,274.0,286.0
21:15:58,-2040.0,274.0,286.0
21:15:58,-2000.0,274.0,285.0
21:15:58,-2000.0,274.0,285.0
21:15:58,-2000.0,274.0,285.0
21:15:58,-2000.0,274.0,285.0
21:15:58,-1999.0,275.0,286.0
21:15:58,-1999.0,275.0,286.0
21:15:58,-1999.0,275.0,286.0
21:15:58,-1999.0,275.0,286.0
21:15:58,-2046.0,275.0,285.0
21:15:58,-2046.0,275.0,285.0
21:15:58,-2046.0,275.0,285.0
21:15:58,-2046.0,275.0,285.0
21:15:58,-2058.0,275.0,284.0
21:15:58,-2058.0,275.0,284.0
21:15:58,-2058.0,275.0,284.0
21:15:58,-2058.0,275.0,284.0
21:15:58,-2089.0,275.0,285.0
21:15:58,-2089.0,275.0,285.0
21:15:58,-2089.0,275.0,285.0
21:15:58,-2089.0,275.0,285.0
21:15:58,-2052.0,274.0,284.0
21:15:58,-2052.0,274.0,284.0
21:15:58,-2052.0,274.0,284.0
21:15:58,-2052.0,274.0,284.0
21:15:58,-2073.0,274.0,283.0
21:15:58,-2073.0,274.0,283.0
21:15:58,-2073.0,274.0,283.0
21:15:58,-2073.0,274.0,283.0
21:15:58,-2071.0,274.0,283.0
21:15:58,-2071.0,274.0,283.0
21:15:58,-2071.0,274.0,283.0
21:15:58,-2071.0,274.0,283.0
21:15:58,-2060.0,274.0,284.0
21:15:58,-2060.0,274.0,284.0
21:15:58,-2060.0,274.0,284.0
21:15:58,-2060.0,274.0,284.0
21:15:58,-2055.0,274.0,284.0
21:15:58,-2055.0,274.0,284.0
21:15:58,-2055.0,274.0,284.0
21:15:58,-2055.0,274.0,284.0
21:15:58,-2068.0,275.0,283.0
21:15:58,-2068.0,275.0,283.0
21:15:58,-2068.0,275.0,283.0
21:15:58,-2068.0,275.0,283.0
21:15:58,-2098.0,276.0,285.0
21:15:58,-2098.0,276.0,285.0
21:15:58,-2098.0,276.0,285.0
21:15:58,-2098.0,276.0,285.0
21:15:58,-2044.0,274.0,283.0
21:15:58,-2044.0,274.0,283.0
21:15:58,-2044.0,274.0,283.0
21:15:58,-2044.0,274.0,283.0
21:15:58,-2036.0,276.0,283.0
21:15:58,-2036.0,276.0,283.0
21:15:58,-2036.0,276.0,283.0
21:15:58,-2036.0,276.0,283.0
21:15:58,-2003.0,274.0,283.0
21:15:58,-2003.0,274.0,283.0
21:15:58,-2003.0,274.0,283.0
21:15:58,-2003.0,274.0,283.0
21:15:58,-2021.0,275.0,285.0
21:15:58,-2021.0,275.0,285.0
21:15:58,-2021.0,275.0,285.0
21:15:58,-2021.0,275.0,285.0
21:15:58,-1986.0,275.0,283.0
21:15:58,-1986.0,275.0,283.0
21:15:58,-1986.0,275.0,283.0
21:15:58,-1986.0,275.0,283.0
21:15:58,-1959.0,274.0,284.0
21:15:58,-1959.0,274.0,284.0
21:15:58,-1959.0,274.0,284.0
21:15:58,-1959.0,274.0,284.0
21:15:58,-1975.0,274.0,282.0
21:15:58,-1975.0,274.0,282.0
21:15:58,-1975.0,274.0,282.0
21:15:58,-1975.0,274.0,282.0
21:15:58,-2014.0,273.0,283.0
21:15:58,-2014.0,273.0,283.0
21:15:58,-2014.0,273.0,283.0
21:15:58,-2014.0,273.0,283.0
21:15:58,-2055.0,274.0,283.0
21:15:58,-2055.0,274.0,283.0
21:15:58,-2055.0,274.0,283.0
21:15:58,-2055.0,274.0,283.0
21:15:58,-1871.0,274.0,284.0
21:15:58,-1871.0,274.0,284.0
21:15:58,-1871.0,274.0,284.0
21:15:58,-1871.0,274.0,284.0
21:15:58,-1470.0,274.0,285.0
21:15:58,-1470.0,274.0,285.0
21:15:58,-1470.0,274.0,285.0
21:15:58,-1470.0,274.0,285.0
21:15:58,-2056.0,273.0,285.0
21:15:58,-2056.0,273.0,285.0
21:15:58,-2056.0,273.0,285.0
21:15:58,-2056.0,273.0,285.0
21:15:58,-1989.0,274.0,284.0
21:15:58,-1989.0,274.0,284.0
21:15:58,-1989.0,274.0,284.0
21:15:58,-1989.0,274.0,284.0
21:15:58,-1981.0,274.0,283.0
21:15:58,-1981.0,274.0,283.0
21:15:58,-1981.0,274.0,283.0
21:15:58,-1981.0,274.0,283.0
21:15:58,-1953.0,274.0,284.0
21:15:58,-1953.0,274.0,284.0
21:15:58,-1953.0,274.0,284.0
21:15:58,-1953.0,274.0,284.0
21:15:58,-1959.0,273.0,283.0
21:15:58,-1959.0,273.0,283.0
21:15:58,-1959.0,273.0,283.0
21:15:58,-1959.0,273.0,283.0
21:15:58,-1944.0,275.0,284.0
21:15:58,-1944.0,275.0,284.0
21:15:58,-1944.0,275.0,284.0
21:15:58,-1944.0,275.0,284.0
21:15:58,-1945.0,275.0,282.0
21:15:58,-1945.0,275.0,282.0
21:15:58,-1945.0,275.0,282.0
21:15:58,-1945.0,275.0,282.0
21:15:58,-1922.0,275.0,282.0
21:15:58,-1922.0,275.0,282.0
21:15:58,-1922.0,275.0,282.0
21:15:58,-1922.0,275.0,282.0
21:15:58,-1956.0,274.0,285.0
21:15:58,-1956.0,274.0,285.0
21:15:58,-1956.0,274.0,285.0
21:15:58,-1956.0,274.0,285.0
21:15:58,-1895.0,275.0,283.0
21:15:58,-1895.0,275.0,283.0
21:15:58,-1895.0,275.0,283.0
21:15:58,-1895.0,275.0,283.0
21:15:58,-1949.0,273.0,282.0
21:15:58,-1949.0,273.0,282.0
21:15:58,-1949.0,273.0,282.0
21:15:58,-1949.0,273.0,282.0
21:15:58,-1971.0,274.0,283.0
21:15:58,-1971.0,274.0,283.0
21:15:58,-1971.0,274.0,283.0
21:15:58,-1971.0,274.0,283.0
21:15:58,-1988.0,275.0,282.0
21:15:58,-1988.0,275.0,282.0
21:15:58,-1988.0,275.0,282.0
21:15:58,-1988.0,275.0,282.0
21:15:58,-2024.0,274.0,282.0
21:15:58,-2024.0,274.0,282.0
21:15:58,-2024.0,274.0,282.0
21:15:58,-2024.0,274.0,282.0
21:15:58,-2045.0,274.0,284.0
21:15:58,-2045.0,274.0,284.0
21:15:58,-2045.0,274.0,284.0
21:15:58,-2045.0,274.0,284.0
21:15:58,-2009.0,274.0,282.0
21:15:58,-2009.0,274.0,282.0
21:15:58,-2009.0,274.0,282.0
21:15:58,-2009.0,274.0,282.0
21:15:58,-1952.0,273.0,283.0
21:15:58,-1952.0,273.0,283.0
21:15:58,-1952.0,273.0,283.0
21:15:58,-1952.0,273.0,283.0
21:15:58,-2080.0,275.0,282.0
21:15:58,-2080.0,275.0,282.0
21:15:58,-2080.0,275.0,282.0
21:15:58,-2080.0,275.0,282.0
21:15:58,-2047.0,273.0,282.0
21:15:58,-2047.0,273.0,282.0
21:15:58,-2047.0,273.0,282.0
21:15:58,-2047.0,273.0,282.0
21:15:58,-2013.0,273.0,283.0
21:15:58,-2013.0,273.0,283.0
21:15:58,-2013.0,273.0,283.0
21:15:58,-2013.0,273.0,283.0
21:15:58,-2025.0,273.0,283.0
21:15:58,-2025.0,273.0,283.0
21:15:58,-2025.0,273.0,283.0
21:15:58,-2025.0,273.0,283.0
21:15:58,-2009.0,272.0,283.0
21:15:58,-2009.0,272.0,283.0
21:15:58,-2009.0,272.0,283.0
21:15:58,-2009.0,272.0,283.0
21:15:58,-2065.0,274.0,283.0
21:15:58,-2065.0,274.0,283.0
21:15:58,-2065.0,274.0,283.0
21:15:58,-2065.0,274.0,283.0
21:15:58,-2045.0,273.0,283.0
21:15:58,-2045.0,273.0,283.0
21:15:58,-2045.0,273.0,283.0
21:15:58,-2045.0,273.0,283.0
21:15:58,-2054.0,274.0,283.0
21:15:58,-2054.0,274.0,283.0
21:15:58,-2054.0,274.0,283.0
21:15:58,-2054.0,274.0,283.0
21:15:58,-2041.0,273.0,282.0
21:15:58,-2041.0,273.0,282.0
21:15:58,-2041.0,273.0,282.0
21:15:58,-2041.0,273.0,282.0
21:15:58,-2052.0,272.0,283.0
21:15:59,-2052.0,272.0,283.0
21:15:59,-2052.0,272.0,283.0
21:15:59,-2052.0,272.0,283.0
21:15:59,-2084.0,273.0,282.0
21:15:59,-2084.0,273.0,282.0
21:15:59,-2084.0,273.0,282.0
21:15:59,-2084.0,273.0,282.0
21:15:59,-2045.0,273.0,284.0
21:15:59,-2045.0,273.0,284.0
21:15:59,-2045.0,273.0,284.0
21:15:59,-2045.0,273.0,284.0
21:15:59,-2042.0,273.0,283.0
21:15:59,-2042.0,273.0,283.0
21:15:59,-2042.0,273.0,283.0
21:15:59,-2042.0,273.0,283.0
21:15:59,-2036.0,275.0,282.0
21:15:59,-2036.0,275.0,282.0
21:15:59,-2036.0,275.0,282.0
21:15:59,-2036.0,275.0,282.0
21:15:59,-2042.0,273.0,282.0
21:15:59,-2042.0,273.0,282.0
21:15:59,-2042.0,273.0,282.0
21:15:59,-2042.0,273.0,282.0
21:15:59,-2030.0,272.0,282.0
21:15:59,-2030.0,272.0,282.0
21:15:59,-2030.0,272.0,282.0
21:15:59,-2030.0,272.0,282.0
21:15:59,-2037.0,273.0,281.0
21:15:59,-2037.0,273.0,281.0
21:15:59,-2037.0,273.0,281.0
21:15:59,-2037.0,273.0,281.0
21:15:59,-2040.0,273.0,283.0
21:15:59,-2040.0,273.0,283.0
21:15:59,-2040.0,273.0,283.0
21:15:59,-2040.0,273.0,283.0
21:15:59,-2073.0,274.0,283.0
21:15:59,-2073.0,274.0,283.0
21:15:59,-2073.0,274.0,283.0
21:15:59,-2073.0,274.0,283.0
21:15:59,-1824.0,273.0,282.0
21:15:59,-1824.0,273.0,282.0
21:15:59,-1824.0,273.0,282.0
21:15:59,-1824.0,273.0,282.0
21:15:59,-1534.0,272.0,281.0
21:15:59,-1534.0,272.0,281.0
21:15:59,-1534.0,272.0,281.0
21:15:59,-1534.0,272.0,281.0
21:15:59,-2133.0,273.0,283.0
21:15:59,-2133.0,273.0,283.0
21:15:59,-2133.0,273.0,283.0
21:15:59,-2133.0,273.0,283.0
21:15:59,-2049.0,272.0,280.0
21:15:59,-2049.0,272.0,280.0
21:15:59,-2049.0,272.0,280.0
21:15:59,-2049.0,272.0,280.0
21:15:59,-2038.0,273.0,282.0
21:15:59,-2038.0,273.0,282.0
21:15:59,-2038.0,273.0,282.0
21:15:59,-2038.0,273.0,282.0
21:15:59,-2048.0,272.0,282.0
21:15:59,-2048.0,272.0,282.0
21:15:59,-2048.0,272.0,282.0
21:15:59,-2048.0,272.0,282.0
21:15:59,-2049.0,272.0,283.0
21:15:59,-2049.0,272.0,283.0
21:15:59,-2049.0,272.0,283.0
21:15:59,-2049.0,272.0,283.0
21:15:59,-2056.0,272.0,282.0
21:15:59,-2056.0,272.0,282.0
21:15:59,-2056.0,272.0,282.0
21:15:59,-2056.0,272.0,282.0
21:15:59,-2013.0,272.0,282.0
21:15:59,-2013.0,272.0,282.0
21:15:59,-2013.0,272.0,282.0
21:15:59,-2013.0,272.0,282.0
21:15:59,-2051.0,272.0,282.0
21:15:59,-2051.0,272.0,282.0
21:15:59,-2051.0,272.0,282.0
21:15:59,-2051.0,272.0,282.0
21:15:59,-2037.0,272.0,280.0
21:15:59,-2037.0,272.0,280.0
21:15:59,-2037.0,272.0,280.0
21:15:59,-2037.0,272.0,280.0
21:15:59,-2040.0,271.0,280.0
21:15:59,-2040.0,271.0,280.0
21:15:59,-2040.0,271.0,280.0
21:15:59,-2040.0,271.0,280.0
21:15:59,-2054.0,271.0,281.0
21:15:59,-2054.0,271.0,281.0
21:15:59,-2054.0,271.0,281.0
21:15:59,-2054.0,271.0,281.0
21:15:59,-2081.0,272.0,282.0
21:15:59,-2081.0,272.0,282.0
21:15:59,-2081.0,272.0,282.0
21:15:59,-2081.0,272.0,282.0
21:15:59,-2089.0,273.0,280.0
21:15:59,-2089.0,273.0,280.0
21:15:59,-2089.0,273.0,280.0
21:15:59,-2089.0,273.0,280.0
21:15:59,-2119.0,272.0,281.0
21:15:59,-2119.0,272.0,281.0
21:15:59,-2119.0,272.0,281.0
21:15:59,-2119.0,272.0,281.0
21:15:59,-2127.0,271.0,282.0
21:15:59,-2127.0,271.0,282.0
21:15:59,-2127.0,271.0,282.0
21:15:59,-2127.0,271.0,282.0
21:15:59,-2121.0,272.0,281.0
21:15:59,-2121.0,272.0,281.0
21:15:59,-2121.0,272.0,281.0
21:15:59,-2121.0,272.0,281.0
21:15:59,-2089.0,272.0,282.0
21:15:59,-2089.0,272.0,282.0
21:15:59,-2089.0,272.0,282.0
21:15:59,-2089.0,272.0,282.0
21:15:59,-2113.0,272.0,282.0
21:15:59,-2113.0,272.0,282.0
21:15:59,-2113.0,272.0,282.0
21:15:59,-2113.0,272.0,282.0
21:15:59,-2127.0,272.0,281.0
21:15:59,-2127.0,272.0,281.0
21:15:59,-2127.0,272.0,281.0
21:15:59,-2127.0,272.0,281.0
21:15:59,-2129.0,271.0,281.0
21:15:59,-2129.0,271.0,281.0
21:15:59,-2129.0,271.0,281.0
21:15:59,-2129.0,271.0,281.0
21:15:59,-2092.0,271.0,282.0
21:15:59,-2092.0,271.0,282.0
21:15:59,-2092.0,271.0,282.0
21:15:59,-2092.0,271.0,282.0
21:15:59,-2143.0,271.0,283.0
21:15:59,-2143.0,271.0,283.0
21:15:59,-2143.0,271.0,283.0
21:15:59,-2143.0,271.0,283.0
21:15:59,-2179.0,272.0,282.0
21:15:59,-2179.0,272.0,282.0
21:15:59,-2179.0,272.0,282.0
21:15:59,-2179.0,272.0,282.0
21:15:59,-2157.0,272.0,282.0
21:15:59,-2157.0,272.0,282.0
21:15:59,-2157.0,272.0,282.0
21:15:59,-2157.0,272.0,282.0
21:15:59,-2190.0,272.0,283.0
21:15:59,-2190.0,272.0,283.0
21:15:59,-2190.0,272.0,283.0
21:15:59,-2190.0,272.0,283.0
21:15:59,-2165.0,272.0,283.0
21:15:59,-2165.0,272.0,283.0
21:15:59,-2165.0,272.0,283.0
21:15:59,-2165.0,272.0,283.0
21:15:59,-2199.0,273.0,283.0
21:15:59,-2199.0,273.0,283.0
21:15:59,-2199.0,273.0,283.0
21:15:59,-2199.0,273.0,283.0
21:15:59,-2171.0,273.0,282.0
21:15:59,-2171.0,273.0,282.0
21:15:59,-2171.0,273.0,282.0
21:15:59,-2171.0,273.0,282.0
21:15:59,-2178.0,273.0,282.0
21:15:59,-2178.0,273.0,282.0
21:15:59,-2178.0,273.0,282.0
21:15:59,-2178.0,273.0,282.0
21:15:59,-2199.0,274.0,282.0
21:15:59,-2199.0,274.0,282.0
21:15:59,-2199.0,274.0,282.0
21:15:59,-2199.0,274.0,282.0
21:15:59,-2157.0,274.0,283.0
21:15:59,-2157.0,274.0,283.0
21:15:59,-2157.0,274.0,283.0
21:15:59,-2157.0,274.0,283.0
21:15:59,-2167.0,273.0,282.0
21:15:59,-2167.0,273.0,282.0
21:15:59,-2167.0,273.0,282.0
21:15:59,-2167.0,273.0,282.0
21:15:59,-2210.0,273.0,282.0
21:15:59,-2210.0,273.0,282.0
21:15:59,-2210.0,273.0,282.0
21:15:59,-2210.0,273.0,282.0
21:15:59,-2313.0,271.0,283.0
21:15:59,-2313.0,271.0,283.0
21:15:59,-2313.0,271.0,283.0
21:15:59,-2313.0,271.0,283.0
21:15:59,-1726.0,272.0,284.0
21:15:59,-1726.0,272.0,284.0
21:15:59,-1726.0,272.0,284.0
21:15:59,-1726.0,272.0,284.0
21:15:59,-2118.0,272.0,283.0
21:15:59,-2118.0,272.0,283.0
21:15:59,-2118.0,272.0,283.0
21:15:59,-2118.0,272.0,283.0
21:15:59,-2213.0,272.0,283.0
21:15:59,-2213.0,272.0,283.0
21:15:59,-2213.0,272.0,283.0
21:15:59,-2213.0,272.0,283.0
21:15:59,-2167.0,274.0,282.0
21:15:59,-2167.0,274.0,282.0
21:15:59,-2167.0,274.0,282.0
21:15:59,-2167.0,274.0,282.0
21:15:59,-2173.0,273.0,283.0
21:16:00,-2173.0,273.0,283.0
21:16:00,-2173.0,273.0,283.0
21:16:00,-2173.0,273.0,283.0
21:16:00,-2177.0,273.0,284.0
21:16:00,-2177.0,273.0,284.0
21:16:00,-2177.0,273.0,284.0
21:16:00,-2177.0,273.0,284.0
21:16:00,-2168.0,273.0,283.0
21:16:00,-2168.0,273.0,283.0
21:16:00,-2168.0,273.0,283.0
21:16:00,-2168.0,273.0,283.0
21:16:00,-2177.0,273.0,283.0
21:16:00,-2177.0,273.0,283.0
21:16:00,-2177.0,273.0,283.0
21:16:00,-2177.0,273.0,283.0
21:16:00,-2185.0,272.0,283.0
21:16:00,-2185.0,272.0,283.0
21:16:00,-2185.0,272.0,283.0
21:16:00,-2185.0,272.0,283.0
21:16:00,-2139.0,273.0,283.0
21:16:00,-2139.0,273.0,283.0
21:16:00,-2139.0,273.0,283.0
21:16:00,-2139.0,273.0,283.0
21:16:00,-2150.0,272.0,283.0
21:16:00,-2150.0,272.0,283.0
21:16:00,-2150.0,272.0,283.0
21:16:00,-2150.0,272.0,283.0
21:16:00,-2198.0,273.0,283.0
21:16:00,-2198.0,273.0,283.0
21:16:00,-2198.0,273.0,283.0
21:16:00,-2198.0,273.0,283.0
21:16:00,-2229.0,273.0,283.0
21:16:00,-2229.0,273.0,283.0
21:16:00,-2229.0,273.0,283.0
21:16:00,-2229.0,273.0,283.0
21:16:00,-2296.0,272.0,283.0
21:16:00,-2296.0,272.0,283.0
21:16:00,-2296.0,272.0,283.0
21:16:00,-2296.0,272.0,283.0
21:16:00,-2304.0,273.0,284.0
21:16:00,-2304.0,273.0,284.0
21:16:00,-2304.0,273.0,284.0
21:16:00,-2304.0,273.0,284.0
21:16:00,-2324.0,273.0,284.0
21:16:00,-2324.0,273.0,284.0
21:16:00,-2324.0,273.0,284.0
21:16:00,-2324.0,273.0,284.0
21:16:00,-2337.0,274.0,284.0
21:16:00,-2337.0,274.0,284.0
21:16:00,-2337.0,274.0,284.0
21:16:00,-2337.0,274.0,284.0
21:16:00,-2315.0,273.0,284.0
21:16:00,-2315.0,273.0,284.0
21:16:00,-2315.0,273.0,284.0
21:16:00,-2315.0,273.0,284.0
21:16:00,-2356.0,273.0,285.0
21:16:00,-2356.0,273.0,285.0
21:16:00,-2356.0,273.0,285.0
21:16:00,-2356.0,273.0,285.0
21:16:00,-2372.0,274.0,283.0
21:16:00,-2372.0,274.0,283.0
21:16:00,-2372.0,274.0,283.0
21:16:00,-2372.0,274.0,283.0
21:16:00,-2369.0,274.0,283.0
21:16:00,-2369.0,274.0,283.0
21:16:00,-2369.0,274.0,283.0
21:16:00,-2369.0,274.0,283.0
21:16:00,-2347.0,275.0,283.0
21:16:00,-2347.0,275.0,283.0
21:16:00,-2347.0,275.0,283.0
21:16:00,-2347.0,275.0,283.0
21:16:00,-2384.0,273.0,283.0
21:16:00,-2384.0,273.0,283.0
21:16:00,-2384.0,273.0,283.0
21:16:00,-2384.0,273.0,283.0
21:16:00,-2404.0,273.0,282.0
21:16:00,-2404.0,273.0,282.0
21:16:00,-2404.0,273.0,282.0
21:16:00,-2404.0,273.0,282.0
21:16:00,-2428.0,273.0,283.0
21:16:00,-2428.0,273.0,283.0
21:16:00,-2428.0,273.0,283.0
21:16:00,-2428.0,273.0,283.0
21:16:00,-2422.0,274.0,282.0
21:16:00,-2422.0,274.0,282.0
21:16:00,-2422.0,274.0,282.0
21:16:00,-2422.0,274.0,282.0
21:16:00,-2370.0,272.0,283.0
21:16:00,-2370.0,272.0,283.0
21:16:00,-2370.0,272.0,283.0
21:16:00,-2370.0,272.0,283.0
21:16:00,-2401.0,274.0,283.0
21:16:00,-2401.0,274.0,283.0
21:16:00,-2401.0,274.0,283.0
21:16:00,-2401.0,274.0,283.0
21:16:00,-2415.0,274.0,282.0
21:16:00,-2415.0,274.0,282.0
21:16:00,-2415.0,274.0,282.0
21:16:00,-2415.0,274.0,282.0
21:16:00,-2425.0,274.0,284.0
21:16:00,-2425.0,274.0,284.0
21:16:00,-2425.0,274.0,284.0
21:16:00,-2425.0,274.0,284.0
21:16:00,-2471.0,274.0,283.0
21:16:00,-2471.0,274.0,283.0
21:16:00,-2471.0,274.0,283.0
21:16:00,-2471.0,274.0,283.0
21:16:00,-2467.0,274.0,283.0
21:16:00,-2467.0,274.0,283.0
21:16:00,-2467.0,274.0,283.0
21:16:00,-2467.0,274.0,283.0
21:16:00,-1860.0,274.0,283.0
21:16:00,-1860.0,274.0,283.0
21:16:00,-1860.0,274.0,283.0
21:16:00,-1860.0,274.0,283.0
21:16:00,-2556.0,274.0,283.0
21:16:00,-2556.0,274.0,283.0
21:16:00,-2556.0,274.0,283.0
21:16:00,-2556.0,274.0,283.0
21:16:00,-2478.0,275.0,283.0
21:16:00,-2478.0,275.0,283.0
21:16:00,-2478.0,275.0,283.0
21:16:00,-2478.0,275.0,283.0
21:16:00,-2456.0,274.0,283.0
21:16:00,-2456.0,274.0,283.0
21:16:00,-2456.0,274.0,283.0
21:16:00,-2456.0,274.0,283.0
21:16:00,-2473.0,274.0,284.0
21:16:00,-2473.0,274.0,284.0
21:16:00,-2473.0,274.0,284.0
21:16:00,-2473.0,274.0,284.0
21:16:00,-2464.0,274.0,284.0
21:16:00,-2464.0,274.0,284.0
21:16:00,-2464.0,274.0,284.0
21:16:00,-2464.0,274.0,284.0
21:16:00,-2468.0,276.0,285.0
21:16:00,-2468.0,276.0,285.0
21:16:00,-2468.0,276.0,285.0
21:16:00,-2468.0,276.0,285.0
21:16:00,-2425.0,275.0,285.0
21:16:00,-2425.0,275.0,285.0
21:16:00,-2425.0,275.0,285.0
21:16:00,-2425.0,275.0,285.0
21:16:00,-2419.0,274.0,285.0
21:16:00,-2419.0,274.0,285.0
21:16:00,-2419.0,274.0,285.0
21:16:00,-2419.0,274.0,285.0
21:16:00,-2420.0,274.0,284.0
21:16:00,-2420.0,274.0,284.0
21:16:00,-2420.0,274.0,284.0
21:16:00,-2420.0,274.0,284.0
21:16:00,-2444.0,274.0,285.0
21:16:00,-2444.0,274.0,285.0
21:16:00,-2444.0,274.0,285.0
21:16:00,-2444.0,274.0,285.0
21:16:00,-2424.0,275.0,284.0
21:16:00,-2424.0,275.0,284.0
21:16:00,-2424.0,275.0,284.0
21:16:00,-2424.0,275.0,284.0
21:16:00,-2464.0,274.0,285.0
21:16:00,-2464.0,274.0,285.0
21:16:00,-2464.0,274.0,285.0
21:16:00,-2464.0,274.0,285.0
21:16:00,-2561.0,274.0,285.0
21:16:00,-2561.0,274.0,285.0
21:16:00,-2561.0,274.0,285.0
21:16:00,-2561.0,274.0,285.0
21:16:00,-2528.0,273.0,286.0
21:16:00,-2528.0,273.0,286.0
21:16:00,-2528.0,273.0,286.0
21:16:00,-2528.0,273.0,286.0
21:16:00,-2576.0,274.0,284.0
21:16:00,-2576.0,274.0,284.0
21:16:00,-2576.0,274.0,284.0
21:16:00,-2576.0,274.0,284.0
21:16:00,-2543.0,274.0,284.0
21:16:00,-2543.0,274.0,284.0
21:16:00,-2543.0,274.0,284.0
21:16:00,-2543.0,274.0,284.0
21:16:00,-2577.0,273.0,283.0
21:16:00,-2577.0,273.0,283.0
21:16:00,-2577.0,273.0,283.0
21:16:00,-2577.0,273.0,283.0
21:16:00,-2539.0,275.0,285.0
21:16:00,-2539.0,275.0,285.0
21:16:00,-2539.0,275.0,285.0
21:16:00,-2539.0,275.0,285.0
21:16:00,-2568.0,274.0,285.0
21:16:00,-2568.0,274.0,285.0
21:16:00,-2568.0,274.0,285.0
21:16:00,-2568.0,274.0,285.0
21:16:00,-2561.0,274.0,285.0
21:16:00,-2561.0,274.0,285.0
21:16:00,-2561.0,274.0,285.0
21:16:00,-2561.0,274.0,285.0
21:16:00,-2564.0,274.0,285.0
21:16:00,-2564.0,274.0,285.0
21:16:00,-2564.0,274.0,285.0
21:16:00,-2564.0,274.0,285.0
21:16:00,-2544.0,274.0,284.0
21:16:00,-2544.0,274.0,284.0
21:16:01,-2544.0,274.0,284.0
21:16:01,-2544.0,274.0,284.0
21:16:01,-2564.0,273.0,284.0
21:16:01,-2564.0,273.0,284.0
21:16:01,-2564.0,273.0,284.0
21:16:01,-2564.0,273.0,284.0
21:16:01,-2528.0,273.0,284.0
21:16:01,-2528.0,273.0,284.0
21:16:01,-2528.0,273.0,284.0
21:16:01,-2528.0,273.0,284.0
21:16:01,-2598.0,274.0,284.0
21:16:01,-2598.0,274.0,284.0
21:16:01,-2598.0,274.0,284.0
21:16:01,-2598.0,274.0,284.0
21:16:01,-2540.0,274.0,283.0
21:16:01,-2540.0,274.0,283.0
21:16:01,-2540.0,274.0,283.0
21:16:01,-2540.0,274.0,283.0
21:16:01,-2590.0,274.0,284.0
21:16:01,-2590.0,274.0,284.0
21:16:01,-2590.0,274.0,284.0
21:16:01,-2590.0,274.0,284.0
21:16:01,-2605.0,274.0,285.0
21:16:01,-2605.0,274.0,285.0
21:16:01,-2605.0,274.0,285.0
21:16:01,-2605.0,274.0,285.0
21:16:01,-2690.0,274.0,284.0
21:16:01,-2690.0,274.0,284.0
21:16:01,-2690.0,274.0,284.0
21:16:01,-2690.0,274.0,284.0
21:16:01,-2001.0,274.0,284.0
21:16:01,-2001.0,274.0,284.0
21:16:01,-2001.0,274.0,284.0
21:16:01,-2001.0,274.0,284.0
21:16:01,-2520.0,275.0,284.0
21:16:01,-2520.0,275.0,284.0
21:16:01,-2520.0,275.0,284.0
21:16:01,-2520.0,275.0,284.0
21:16:01,-2653.0,274.0,284.0
21:16:01,-2653.0,274.0,284.0
21:16:01,-2653.0,274.0,284.0
21:16:01,-2653.0,274.0,284.0
21:16:01,-2602.0,275.0,284.0
21:16:01,-2602.0,275.0,284.0
21:16:01,-2602.0,275.0,284.0
21:16:01,-2602.0,275.0,284.0
21:16:01,-2641.0,276.0,283.0
21:16:01,-2641.0,276.0,283.0
21:16:01,-2641.0,276.0,283.0
21:16:01,-2641.0,276.0,283.0
21:16:01,-2666.0,275.0,284.0
21:16:01,-2666.0,275.0,284.0
21:16:01,-2666.0,275.0,284.0
21:16:01,-2666.0,275.0,284.0
21:16:01,-2602.0,274.0,283.0
21:16:01,-2602.0,274.0,283.0
21:16:01,-2602.0,274.0,283.0
21:16:01,-2602.0,274.0,283.0
21:16:01,-2593.0,274.0,284.0
21:16:01,-2593.0,274.0,284.0
21:16:01,-2593.0,274.0,284.0
21:16:01,-2593.0,274.0,284.0
21:16:01,-2574.0,276.0,284.0
21:16:01,-2574.0,276.0,284.0
21:16:01,-2574.0,276.0,284.0
21:16:01,-2574.0,276.0,284.0
21:16:01,-2553.0,275.0,285.0
21:16:01,-2553.0,275.0,285.0
21:16:01,-2553.0,275.0,285.0
21:16:01,-2553.0,275.0,285.0
21:16:01,-2527.0,274.0,285.0
21:16:01,-2527.0,274.0,285.0
21:16:01,-2527.0,274.0,285.0
21:16:01,-2527.0,274.0,285.0
21:16:01,-2565.0,275.0,284.0
21:16:01,-2565.0,275.0,284.0
21:16:01,-2565.0,275.0,284.0
21:16:01,-2565.0,275.0,284.0
21:16:01,-2628.0,275.0,285.0
21:16:01,-2628.0,275.0,285.0
21:16:01,-2628.0,275.0,285.0
21:16:01,-2628.0,275.0,285.0
21:16:01,-2646.0,275.0,283.0
21:16:01,-2646.0,275.0,283.0
21:16:01,-2646.0,275.0,283.0
21:16:01,-2646.0,275.0,283.0
21:16:01,-2651.0,275.0,284.0
21:16:01,-2651.0,275.0,284.0
21:16:01,-2651.0,275.0,284.0
21:16:01,-2651.0,275.0,284.0
21:16:01,-2726.0,275.0,284.0
21:16:01,-2726.0,275.0,284.0
21:16:01,-2726.0,275.0,284.0
21:16:01,-2726.0,275.0,284.0
21:16:01,-2724.0,275.0,284.0
21:16:01,-2724.0,275.0,284.0
21:16:01,-2724.0,275.0,284.0
21:16:01,-2724.0,275.0,284.0
21:16:01,-2736.0,277.0,284.0
21:16:01,-2736.0,277.0,284.0
21:16:01,-2736.0,277.0,284.0
21:16:01,-2736.0,277.0,284.0
21:16:01,-2757.0,274.0,284.0
21:16:01,-2757.0,274.0,284.0
21:16:01,-2757.0,274.0,284.0
21:16:01,-2757.0,274.0,284.0
21:16:01,-2753.0,275.0,284.0
21:16:01,-2753.0,275.0,284.0
21:16:01,-2753.0,275.0,284.0
21:16:01,-2753.0,275.0,284.0
21:16:01,-2763.0,276.0,285.0
21:16:01,-2763.0,276.0,285.0
21:16:01,-2763.0,276.0,285.0
21:16:01,-2763.0,276.0,285.0
21:16:01,-2733.0,275.0,285.0
21:16:01,-2733.0,275.0,285.0
21:16:01,-2733.0,275.0,285.0
21:16:01,-2733.0,275.0,285.0
21:16:01,-2711.0,274.0,283.0
21:16:01,-2711.0,274.0,283.0
21:16:01,-2711.0,274.0,283.0
21:16:01,-2711.0,274.0,283.0
21:16:01,-2715.0,274.0,283.0
21:16:01,-2715.0,274.0,283.0
21:16:01,-2715.0,274.0,283.0
21:16:01,-2715.0,274.0,283.0
21:16:01,-2694.0,275.0,283.0
21:16:01,-2694.0,275.0,283.0
21:16:01,-2694.0,275.0,283.0
21:16:01,-2694.0,275.0,283.0
21:16:01,-2662.0,274.0,283.0
21:16:01,-2662.0,274.0,283.0
21:16:01,-2662.0,274.0,283.0
21:16:01,-2662.0,274.0,283.0
21:16:01,-2694.0,274.0,283.0
21:16:01,-2694.0,274.0,283.0
21:16:01,-2694.0,274.0,283.0
21:16:01,-2694.0,274.0,283.0
21:16:01,-2686.0,274.0,283.0
21:16:01,-2686.0,274.0,283.0
21:16:01,-2686.0,274.0,283.0
21:16:01,-2686.0,274.0,283.0
21:16:01,-2753.0,273.0,282.0
21:16:01,-2753.0,273.0,282.0
21:16:01,-2753.0,273.0,282.0
21:16:01,-2753.0,273.0,282.0
21:16:01,-2521.0,274.0,284.0
21:16:01,-2521.0,274.0,284.0
21:16:01,-2521.0,274.0,284.0
21:16:01,-2521.0,274.0,284.0
21:16:01,-2087.0,274.0,284.0
21:16:01,-2087.0,274.0,284.0
21:16:01,-2087.0,274.0,284.0
21:16:01,-2087.0,274.0,284.0
21:16:01,-2772.0,275.0,284.0
21:16:01,-2772.0,275.0,284.0
21:16:01,-2772.0,275.0,284.0
21:16:01,-2772.0,275.0,284.0
21:16:01,-2676.0,273.0,284.0
21:16:01,-2676.0,273.0,284.0
21:16:01,-2676.0,273.0,284.0
21:16:01,-2676.0,273.0,284.0
21:16:01,-2660.0,273.0,284.0
21:16:01,-2660.0,273.0,284.0
21:16:01,-2660.0,273.0,284.0
21:16:01,-2660.0,273.0,284.0
21:16:01,-2697.0,274.0,283.0
21:16:01,-2697.0,274.0,283.0
21:16:01,-2697.0,274.0,283.0
21:16:01,-2697.0,274.0,283.0
21:16:01,-2655.0,272.0,282.0
21:16:01,-2655.0,272.0,282.0
21:16:01,-2655.0,272.0,282.0
21:16:01,-2655.0,272.0,282.0
21:16:01,-2642.0,273.0,283.0
21:16:01,-2642.0,273.0,283.0
21:16:01,-2642.0,273.0,283.0
21:16:01,-2642.0,273.0,283.0
21:16:01,-2621.0,274.0,283.0
21:16:01,-2621.0,274.0,283.0
21:16:01,-2621.0,274.0,283.0
21:16:01,-2621.0,274.0,283.0
21:16:01,-2597.0,273.0,283.0
21:16:01,-2597.0,273.0,283.0
21:16:01,-2597.0,273.0,283.0
21:16:01,-2597.0,273.0,283.0
21:16:01,-2580.0,274.0,282.0
21:16:01,-2580.0,274.0,282.0
21:16:01,-2580.0,274.0,282.0
21:16:01,-2580.0,274.0,282.0
21:16:01,-2590.0,274.0,282.0
21:16:01,-2590.0,274.0,282.0
21:16:01,-2590.0,274.0,282.0
21:16:01,-2590.0,274.0,282.0
21:16:01,-2608.0,273.0,284.0
21:16:01,-2608.0,273.0,284.0
21:16:01,-2608.0,273.0,284.0
21:16:01,-2608.0,273.0,284.0
21:16:01,-2642.0,273.0,283.0
21:16:01,-2642.0,273.0,283.0
21:16:01,-2642.0,273.0,283.0
21:16:02,-2642.0,273.0,283.0
21:16:02,-2631.0,274.0,283.0
21:16:02,-2631.0,274.0,283.0
21:16:02,-2631.0,274.0,283.0
21:16:02,-2631.0,274.0,283.0
21:16:02,-2708.0,273.0,283.0
21:16:02,-2708.0,273.0,283.0
21:16:02,-2708.0,273.0,283.0
21:16:02,-2708.0,273.0,283.0
21:16:02,-2704.0,273.0,283.0
21:16:02,-2704.0,273.0,283.0
21:16:02,-2704.0,273.0,283.0
21:16:02,-2704.0,273.0,283.0
21:16:02,-2671.0,272.0,283.0
21:16:02,-2671.0,272.0,283.0
21:16:02,-2671.0,272.0,283.0
21:16:02,-2671.0,272.0,283.0
21:16:02,-2710.0,273.0,283.0
21:16:02,-2710.0,273.0,283.0
21:16:02,-2710.0,273.0,283.0
21:16:02,-2710.0,273.0,283.0
21:16:02,-2642.0,272.0,282.0
21:16:02,-2642.0,272.0,282.0
21:16:02,-2642.0,272.0,282.0
21:16:02,-2642.0,272.0,282.0
21:16:02,-2608.0,273.0,283.0
21:16:02,-2608.0,273.0,283.0
21:16:02,-2608.0,273.0,283.0
21:16:02,-2608.0,273.0,283.0
21:16:02,-2662.0,273.0,283.0
21:16:02,-2662.0,273.0,283.0
21:16:02,-2662.0,273.0,283.0
21:16:02,-2662.0,273.0,283.0
21:16:02,-2646.0,273.0,283.0
21:16:02,-2646.0,273.0,283.0
21:16:02,-2646.0,273.0,283.0
21:16:02,-2646.0,273.0,283.0
21:16:02,-2651.0,273.0,283.0
21:16:02,-2651.0,273.0,283.0
21:16:02,-2651.0,273.0,283.0
21:16:02,-2651.0,273.0,283.0
21:16:02,-2674.0,273.0,281.0
21:16:02,-2674.0,273.0,281.0
21:16:02,-2674.0,273.0,281.0
21:16:02,-2674.0,273.0,281.0
21:16:02,-2599.0,273.0,283.0
21:16:02,-2599.0,273.0,283.0
21:16:02,-2599.0,273.0,283.0
21:16:02,-2599.0,273.0,283.0
21:16:02,-2662.0,274.0,282.0
21:16:02,-2662.0,274.0,282.0
21:16:02,-2662.0,274.0,282.0
21:16:02,-2662.0,274.0,282.0
21:16:02,-2642.0,273.0,281.0
21:16:02,-2642.0,273.0,281.0
21:16:02,-2642.0,273.0,281.0
21:16:02,-2642.0,273.0,281.0
21:16:02,-2645.0,273.0,281.0
21:16:02,-2645.0,273.0,281.0
21:16:02,-2645.0,273.0,281.0
21:16:02,-2645.0,273.0,281.0
21:16:02,-2661.0,272.0,281.0
21:16:02,-2661.0,272.0,281.0
21:16:02,-2661.0,272.0,281.0
21:16:02,-2661.0,272.0,281.0
21:16:02,-2020.0,273.0,282.0
21:16:02,-2020.0,273.0,282.0
21:16:02,-2020.0,273.0,282.0
21:16:02,-2020.0,273.0,282.0
21:16:02,-2741.0,273.0,283.0
21:16:02,-2741.0,273.0,283.0
21:16:02,-2741.0,273.0,283.0
21:16:02,-2741.0,273.0,283.0
21:16:02,-2671.0,274.0,281.0
21:16:02,-2671.0,274.0,281.0
21:16:02,-2671.0,274.0,281.0
21:16:02,-2671.0,274.0,281.0
21:16:02,-2646.0,272.0,282.0
21:16:02,-2646.0,272.0,282.0
21:16:02,-2646.0,272.0,282.0
21:16:02,-2646.0,272.0,282.0
21:16:02,-2659.0,273.0,282.0
21:16:02,-2659.0,273.0,282.0
21:16:02,-2659.0,273.0,282.0
21:16:02,-2659.0,273.0,282.0
21:16:02,-2641.0,272.0,282.0
21:16:02,-2641.0,272.0,282.0
21:16:02,-2641.0,272.0,282.0
21:16:02,-2641.0,272.0,282.0
21:16:02,-2648.0,272.0,281.0
21:16:02,-2648.0,272.0,281.0
21:16:02,-2648.0,272.0,281.0
21:16:02,-2648.0,272.0,281.0
21:16:02,-2613.0,273.0,281.0
21:16:02,-2613.0,273.0,281.0
21:16:02,-2613.0,273.0,281.0
21:16:02,-2613.0,273.0,281.0
21:16:02,-2576.0,271.0,280.0
21:16:02,-2576.0,271.0,280.0
21:16:02,-2576.0,271.0,280.0
21:16:02,-2576.0,271.0,280.0
21:16:02,-2606.0,272.0,280.0
21:16:02,-2606.0,272.0,280.0
21:16:02,-2606.0,272.0,280.0
21:16:02,-2606.0,272.0,280.0
21:16:02,-2566.0,272.0,280.0
21:16:02,-2566.0,272.0,280.0
21:16:02,-2566.0,272.0,280.0
21:16:02,-2566.0,272.0,280.0
21:16:02,-2599.0,272.0,280.0
21:16:02,-2599.0,272.0,280.0
21:16:02,-2599.0,272.0,280.0
21:16:02,-2599.0,272.0,280.0
21:16:02,-2601.0,272.0,280.0
21:16:02,-2601.0,272.0,280.0
21:16:02,-2601.0,272.0,280.0
21:16:02,-2601.0,272.0,280.0
21:16:02,-2630.0,272.0,282.0
21:16:02,-2630.0,272.0,282.0
21:16:02,-2630.0,272.0,282.0
21:16:02,-2630.0,272.0,282.0
21:16:02,-2659.0,272.0,281.0
21:16:02,-2659.0,272.0,281.0
21:16:02,-2659.0,272.0,281.0
21:16:02,-2659.0,272.0,281.0
21:16:02,-2602.0,273.0,280.0
21:16:02,-2602.0,273.0,280.0
21:16:02,-2602.0,273.0,280.0
21:16:02,-2602.0,273.0,280.0
21:16:02,-2599.0,270.0,280.0
21:16:02,-2599.0,270.0,280.0
21:16:02,-2599.0,270.0,280.0
21:16:02,-2599.0,270.0,280.0
21:16:02,-2577.0,271.0,281.0
21:16:02,-2577.0,271.0,281.0
21:16:02,-2577.0,271.0,281.0
21:16:02,-2577.0,271.0,281.0
21:16:02,-2543.0,272.0,280.0
21:16:02,-2543.0,272.0,280.0
21:16:02,-2543.0,272.0,280.0
21:16:02,-2543.0,272.0,280.0
21:16:02,-2565.0,272.0,281.0
21:16:02,-2565.0,272.0,281.0
21:16:02,-2565.0,272.0,281.0
21:16:02,-2565.0,272.0,281.0
21:16:02,-2565.0,272.0,281.0
21:16:02,-2565.0,272.0,281.0
21:16:02,-2565.0,272.0,281.0
21:16:02,-2565.0,272.0,281.0
21:16:02,-2531.0,271.0,283.0
21:16:02,-2531.0,271.0,283.0
21:16:02,-2531.0,271.0,283.0
21:16:02,-2531.0,271.0,283.0
21:16:02,-2517.0,272.0,281.0
21:16:02,-2517.0,272.0,281.0
21:16:02,-2517.0,272.0,281.0
21:16:02,-2517.0,272.0,281.0
21:16:02,-2489.0,271.0,282.0
21:16:02,-2489.0,271.0,282.0
21:16:02,-2489.0,271.0,282.0
21:16:02,-2489.0,271.0,282.0
21:16:02,-2502.0,272.0,282.0
21:16:02,-2502.0,272.0,282.0
21:16:02,-2502.0,272.0,282.0
21:16:02,-2502.0,272.0,282.0
21:16:02,-2443.0,271.0,283.0
21:16:02,-2443.0,271.0,283.0
21:16:02,-2443.0,271.0,283.0
21:16:02,-2443.0,271.0,283.0
21:16:02,-2468.0,272.0,283.0
21:16:02,-2468.0,272.0,283.0
21:16:02,-2468.0,272.0,283.0
21:16:02,-2468.0,272.0,283.0
21:16:02,-2510.0,272.0,283.0
21:16:02,-2510.0,272.0,283.0
21:16:02,-2510.0,272.0,283.0
21:16:02,-2510.0,272.0,283.0
21:16:02,-2541.0,272.0,282.0
21:16:02,-2541.0,272.0,282.0
21:16:02,-2541.0,272.0,282.0
21:16:02,-2541.0,272.0,282.0
21:16:02,-2243.0,273.0,281.0
21:16:02,-2243.0,273.0,281.0
21:16:02,-2243.0,273.0,281.0
21:16:02,-2243.0,273.0,281.0
21:16:02,-1979.0,272.0,282.0
21:16:02,-1979.0,272.0,282.0
21:16:02,-1979.0,272.0,282.0
21:16:02,-1979.0,272.0,282.0
21:16:02,-2507.0,273.0,281.0
21:16:02,-2507.0,273.0,281.0
21:16:02,-2507.0,273.0,281.0
21:16:02,-2507.0,273.0,281.0
21:16:02,-2468.0,273.0,281.0
21:16:02,-2468.0,273.0,281.0
21:16:02,-2468.0,273.0,281.0
21:16:02,-2468.0,273.0,281.0
21:16:02,-2426.0,273.0,281.0
21:16:02,-2426.0,273.0,281.0
21:16:02,-2426.0,273.0,281.0
21:16:02,-2426.0,273.0,281.0
21:16:03,-2402.0,272.0,282.0
21:16:03,-2402.0,272.0,282.0
21:16:03,-2402.0,272.0,282.0
21:16:03,-2402.0,272.0,282.0
21:16:03,-2363.0,272.0,283.0
21:16:03,-2363.0,272.0,283.0
21:16:03,-2363.0,272.0,283.0
21:16:03,-2363.0,272.0,283.0
21:16:03,-2361.0,272.0,282.0
21:16:03,-2361.0,272.0,282.0
21:16:03,-2361.0,272.0,282.0
21:16:03,-2361.0,272.0,282.0
21:16:03,-2354.0,273.0,282.0
21:16:03,-2354.0,273.0,282.0
21:16:03,-2354.0,273.0,282.0
21:16:03,-2354.0,273.0,282.0
21:16:03,-2323.0,273.0,283.0
21:16:03,-2323.0,273.0,283.0
21:16:03,-2323.0,273.0,283.0
21:16:03,-2323.0,273.0,283.0
21:16:03,-2273.0,273.0,282.0
21:16:03,-2273.0,273.0,282.0
21:16:03,-2273.0,273.0,282.0
21:16:03,-2273.0,273.0,282.0
21:16:03,-2343.0,272.0,283.0
21:16:03,-2343.0,272.0,283.0
21:16:03,-2343.0,272.0,283.0
21:16:03,-2343.0,272.0,283.0
21:16:03,-2291.0,272.0,282.0
21:16:03,-2291.0,272.0,282.0
21:16:03,-2291.0,272.0,282.0
21:16:03,-2291.0,272.0,282.0
21:16:03,-2320.0,272.0,283.0
21:16:03,-2320.0,272.0,283.0
21:16:03,-2320.0,272.0,283.0
21:16:03,-2320.0,272.0,283.0
21:16:03,-2363.0,272.0,281.0
21:16:03,-2363.0,272.0,281.0
21:16:03,-2363.0,272.0,281.0
21:16:03,-2363.0,272.0,281.0
21:16:03,-2327.0,272.0,283.0
21:16:03,-2327.0,272.0,283.0
21:16:03,-2327.0,272.0,283.0
21:16:03,-2327.0,272.0,283.0
21:16:03,-2328.0,272.0,281.0
21:16:03,-2328.0,272.0,281.0
21:16:03,-2328.0,272.0,281.0
21:16:03,-2328.0,272.0,281.0
21:16:03,-2280.0,272.0,282.0
21:16:03,-2280.0,272.0,282.0
21:16:03,-2280.0,272.0,282.0
21:16:03,-2280.0,272.0,282.0
21:16:03,-2327.0,272.0,282.0
21:16:03,-2327.0,272.0,282.0
21:16:03,-2327.0,272.0,282.0
21:16:03,-2327.0,272.0,282.0
21:16:03,-2235.0,273.0,281.0
21:16:03,-2235.0,273.0,281.0
21:16:03,-2235.0,273.0,281.0
21:16:03,-2235.0,273.0,281.0
21:16:03,-2254.0,271.0,283.0
21:16:03,-2254.0,271.0,283.0
21:16:03,-2254.0,271.0,283.0
21:16:03,-2254.0,271.0,283.0
21:16:03,-2254.0,272.0,283.0
21:16:03,-2254.0,272.0,283.0
21:16:03,-2254.0,272.0,283.0
21:16:03,-2254.0,272.0,283.0
21:16:03,-2248.0,272.0,282.0
21:16:03,-2248.0,272.0,282.0
21:16:03,-2248.0,272.0,282.0
21:16:03,-2248.0,272.0,282.0
21:16:03,-2233.0,272.0,282.0
21:16:03,-2233.0,272.0,282.0
21:16:03,-2233.0,272.0,282.0
21:16:03,-2233.0,272.0,282.0
21:16:03,-2237.0,272.0,281.0
21:16:03,-2237.0,272.0,281.0
21:16:03,-2237.0,272.0,281.0
21:16:03,-2237.0,272.0,281.0
21:16:03,-2200.0,273.0,281.0
21:16:03,-2200.0,273.0,281.0
21:16:03,-2200.0,273.0,281.0
21:16:03,-2200.0,273.0,281.0
21:16:03,-2196.0,272.0,282.0
21:16:03,-2196.0,272.0,282.0
21:16:03,-2196.0,272.0,282.0
21:16:03,-2196.0,272.0,282.0
21:16:03,-2192.0,272.0,282.0
21:16:03,-2192.0,272.0,282.0
21:16:03,-2192.0,272.0,282.0
21:16:03,-2192.0,272.0,282.0
21:16:03,-2199.0,272.0,283.0
21:16:03,-2199.0,272.0,283.0
21:16:03,-2199.0,272.0,283.0
21:16:03,-2199.0,272.0,283.0
21:16:03,-2257.0,273.0,284.0
21:16:03,-2257.0,273.0,284.0
21:16:03,-2257.0,273.0,284.0
21:16:03,-2257.0,273.0,284.0
21:16:03,-2107.0,273.0,284.0
21:16:03,-2107.0,273.0,284.0
21:16:03,-2107.0,273.0,284.0
21:16:03,-2107.0,273.0,284.0
21:16:03,-1586.0,273.0,284.0
21:16:03,-1586.0,273.0,284.0
21:16:03,-1586.0,273.0,284.0
21:16:03,-1586.0,273.0,284.0
21:16:03,-2291.0,273.0,283.0
21:16:03,-2291.0,273.0,283.0
21:16:03,-2291.0,273.0,283.0
21:16:03,-2291.0,273.0,283.0
21:16:03,-2178.0,273.0,283.0
21:16:03,-2178.0,273.0,283.0
21:16:03,-2178.0,273.0,283.0
21:16:03,-2178.0,273.0,283.0
21:16:03,-2159.0,273.0,283.0
21:16:03,-2159.0,273.0,283.0
21:16:03,-2159.0,273.0,283.0
21:16:03,-2159.0,273.0,283.0
21:16:03,-2156.0,273.0,283.0
21:16:03,-2156.0,273.0,283.0
21:16:03,-2156.0,273.0,283.0
21:16:03,-2156.0,273.0,283.0
21:16:03,-2124.0,274.0,283.0
21:16:03,-2124.0,274.0,283.0
21:16:03,-2124.0,274.0,283.0
21:16:03,-2124.0,274.0,283.0
21:16:03,-2093.0,275.0,283.0
21:16:03,-2093.0,275.0,283.0
21:16:03,-2093.0,275.0,283.0
21:16:03,-2093.0,275.0,283.0
21:16:03,-2082.0,273.0,283.0
21:16:03,-2082.0,273.0,283.0
21:16:03,-2082.0,273.0,283.0
21:16:03,-2082.0,273.0,283.0
21:16:03,-2067.0,274.0,283.0
21:16:03,-2067.0,274.0,283.0
21:16:03,-2067.0,274.0,283.0
21:16:03,-2067.0,274.0,283.0
21:16:03,-2070.0,275.0,284.0
21:16:03,-2070.0,275.0,284.0
21:16:03,-2070.0,275.0,284.0
21:16:03,-2070.0,275.0,284.0
21:16:03,-2056.0,274.0,284.0
21:16:03,-2056.0,274.0,284.0
21:16:03,-2056.0,274.0,284.0
21:16:03,-2056.0,274.0,284.0
21:16:03,-2088.0,273.0,284.0
21:16:03,-2088.0,273.0,284.0
21:16:03,-2088.0,273.0,284.0
21:16:03,-2088.0,273.0,284.0
21:16:03,-2081.0,274.0,284.0
21:16:03,-2081.0,274.0,284.0
21:16:03,-2081.0,274.0,284.0
21:16:03,-2081.0,274.0,284.0
21:16:03,-2105.0,274.0,284.0
21:16:03,-2105.0,274.0,284.0
21:16:03,-2105.0,274.0,284.0
21:16:03,-2105.0,274.0,284.0
21:16:03,-2105.0,274.0,284.0
21:16:03,-2105.0,274.0,284.0
21:16:03,-2105.0,274.0,284.0
21:16:03,-2105.0,274.0,284.0
21:16:03,-2066.0,275.0,284.0
21:16:03,-2066.0,275.0,284.0
21:16:03,-2066.0,275.0,284.0
21:16:03,-2066.0,275.0,284.0
21:16:03,-2059.0,275.0,284.0
21:16:03,-2059.0,275.0,284.0
21:16:03,-2059.0,275.0,284.0
21:16:03,-2059.0,275.0,284.0
21:16:03,-2086.0,274.0,285.0
21:16:03,-2086.0,274.0,285.0
21:16:03,-2086.0,274.0,285.0
21:16:03,-2086.0,274.0,285.0
21:16:03,-2059.0,275.0,283.0
21:16:03,-2059.0,275.0,283.0
21:16:03,-2059.0,275.0,283.0
21:16:03,-2059.0,275.0,283.0
21:16:03,-2037.0,274.0,282.0
21:16:03,-2037.0,274.0,282.0
21:16:03,-2037.0,274.0,282.0
21:16:03,-2037.0,274.0,282.0
21:16:03,-2065.0,273.0,283.0
21:16:03,-2065.0,273.0,283.0
21:16:03,-2065.0,273.0,283.0
21:16:03,-2065.0,273.0,283.0
21:16:03,-2034.0,273.0,283.0
21:16:03,-2034.0,273.0,283.0
21:16:03,-2034.0,273.0,283.0
21:16:03,-2034.0,273.0,283.0
21:16:03,-2024.0,274.0,284.0
21:16:03,-2024.0,274.0,284.0
21:16:03,-2024.0,274.0,284.0
21:16:03,-2024.0,274.0,284.0
21:16:03,-2014.0,274.0,283.0
21:16:03,-2014.0,274.0,283.0
21:16:03,-2014.0,274.0,283.0
21:16:03,-2014.0,274.0,283.0
21:16:03,-1986.0,274.0,285.0
21:16:04,-1986.0,274.0,285.0
21:16:04,-1986.0,274.0,285.0
21:16:04,-1986.0,274.0,285.0
21:16:04,-1960.0,274.0,284.0
21:16:04,-1960.0,274.0,284.0
21:16:04,-1960.0,274.0,284.0
21:16:04,-1960.0,274.0,284.0
21:16:04,-2006.0,275.0,285.0
21:16:04,-2006.0,275.0,285.0
21:16:04,-2006.0,275.0,285.0
21:16:04,-2006.0,275.0,285.0
21:16:04,-1996.0,273.0,285.0
21:16:04,-1996.0,273.0,285.0
21:16:04,-1996.0,273.0,285.0
21:16:04,-1996.0,273.0,285.0
21:16:04,-2040.0,273.0,283.0
21:16:04,-2040.0,273.0,283.0
21:16:04,-2040.0,273.0,283.0
21:16:04,-2040.0,273.0,283.0
21:16:04,-1421.0,275.0,283.0
21:16:04,-1421.0,275.0,283.0
21:16:04,-1421.0,275.0,283.0
21:16:04,-1421.0,275.0,283.0
21:16:04,-2101.0,273.0,285.0
21:16:04,-2101.0,273.0,285.0
21:16:04,-2101.0,273.0,285.0
21:16:04,-2101.0,273.0,285.0
21:16:04,-1966.0,274.0,285.0
21:16:04,-1966.0,274.0,285.0
21:16:04,-1966.0,274.0,285.0
21:16:04,-1966.0,274.0,285.0
21:16:04,-1966.0,273.0,285.0
21:16:04,-1966.0,273.0,285.0
21:16:04,-1966.0,273.0,285.0
21:16:04,-1966.0,273.0,285.0
21:16:04,-1947.0,275.0,286.0
21:16:04,-1947.0,275.0,286.0
21:16:04,-1947.0,275.0,286.0
21:16:04,-1947.0,275.0,286.0
21:16:04,-1899.0,274.0,285.0
21:16:04,-1899.0,274.0,285.0
21:16:04,-1899.0,274.0,285.0
21:16:04,-1899.0,274.0,285.0
21:16:04,-1911.0,275.0,284.0
21:16:04,-1911.0,275.0,284.0
21:16:04,-1911.0,275.0,284.0
21:16:04,-1911.0,275.0,284.0
21:16:04,-1871.0,274.0,285.0
21:16:04,-1871.0,274.0,285.0
21:16:04,-1871.0,274.0,285.0
21:16:04,-1871.0,274.0,285.0
21:16:04,-1859.0,274.0,283.0
21:16:04,-1859.0,274.0,283.0
21:16:04,-1859.0,274.0,283.0
21:16:04,-1859.0,274.0,283.0
21:16:04,-1822.0,273.0,284.0
21:16:04,-1822.0,273.0,284.0
21:16:04,-1822.0,273.0,284.0
21:16:04,-1822.0,273.0,284.0
21:16:04,-1821.0,274.0,284.0
21:16:04,-1821.0,274.0,284.0
21:16:04,-1821.0,274.0,284.0
21:16:04,-1821.0,274.0,284.0
21:16:04,-1835.0,275.0,283.0
21:16:04,-1835.0,275.0,283.0
21:16:04,-1835.0,275.0,283.0
21:16:04,-1835.0,275.0,283.0
21:16:04,-1878.0,274.0,284.0
21:16:04,-1878.0,274.0,284.0
21:16:04,-1878.0,274.0,284.0
21:16:04,-1878.0,274.0,284.0
21:16:04,-1905.0,275.0,286.0
21:16:04,-1905.0,275.0,286.0
21:16:04,-1905.0,275.0,286.0
21:16:04,-1905.0,275.0,286.0
21:16:04,-1935.0,274.0,285.0
21:16:04,-1935.0,274.0,285.0
21:16:04,-1935.0,274.0,285.0
21:16:04,-1935.0,274.0,285.0
21:16:04,-1908.0,275.0,285.0
21:16:04,-1908.0,275.0,285.0
21:16:04,-1908.0,275.0,285.0
21:16:04,-1908.0,275.0,285.0
21:16:04,-1877.0,275.0,285.0
21:16:04,-1877.0,275.0,285.0
21:16:04,-1877.0,275.0,285.0
21:16:04,-1877.0,275.0,285.0
21:16:04,-1872.0,275.0,285.0
21:16:04,-1872.0,275.0,285.0
21:16:04,-1872.0,275.0,285.0
21:16:04,-1872.0,275.0,285.0
21:16:04,-1875.0,275.0,285.0
21:16:04,-1875.0,275.0,285.0
21:16:04,-1875.0,275.0,285.0
21:16:04,-1875.0,275.0,285.0
21:16:04,-1872.0,274.0,284.0
21:16:04,-1872.0,274.0,284.0
21:16:04,-1872.0,274.0,284.0
21:16:04,-1872.0,274.0,284.0
21:16:04,-1848.0,275.0,284.0
21:16:04,-1848.0,275.0,284.0
21:16:04,-1848.0,275.0,284.0
21:16:04,-1848.0,275.0,284.0
21:16:04,-1849.0,274.0,284.0
21:16:04,-1849.0,274.0,284.0
21:16:04,-1849.0,274.0,284.0
21:16:04,-1849.0,274.0,284.0
21:16:04,-1831.0,276.0,284.0
21:16:04,-1831.0,276.0,284.0
21:16:04,-1831.0,276.0,284.0
21:16:04,-1831.0,276.0,284.0
21:16:04,-1838.0,274.0,285.0
21:16:04,-1838.0,274.0,285.0
21:16:04,-1838.0,274.0,285.0
21:16:04,-1838.0,274.0,285.0
21:16:04,-1787.0,275.0,285.0
21:16:04,-1787.0,275.0,285.0
21:16:04,-1787.0,275.0,285.0
21:16:04,-1787.0,275.0,285.0
21:16:04,-1846.0,274.0,285.0
21:16:04,-1846.0,274.0,285.0
21:16:04,-1846.0,274.0,285.0
21:16:04,-1846.0,274.0,285.0
21:16:04,-1839.0,276.0,284.0
21:16:04,-1839.0,276.0,284.0
21:16:04,-1839.0,276.0,284.0
21:16:04,-1839.0,276.0,284.0
21:16:04,-1918.0,275.0,285.0
21:16:04,-1918.0,275.0,285.0
21:16:04,-1918.0,275.0,285.0
21:16:04,-1918.0,275.0,285.0
21:16:04,-1446.0,274.0,283.0
21:16:04,-1446.0,274.0,283.0
21:16:04,-1446.0,274.0,283.0
21:16:04,-1446.0,274.0,283.0
21:16:04,-1730.0,275.0,285.0
21:16:04,-1730.0,275.0,285.0
21:16:04,-1730.0,275.0,285.0
21:16:04,-1730.0,275.0,285.0
21:16:04,-1850.0,274.0,283.0
21:16:04,-1850.0,274.0,283.0
21:16:04,-1850.0,274.0,283.0
21:16:04,-1850.0,274.0,283.0
21:16:04,-1772.0,274.0,283.0
21:16:04,-1772.0,274.0,283.0
21:16:04,-1772.0,274.0,283.0
21:16:04,-1772.0,274.0,283.0
21:16:04,-1746.0,273.0,285.0
21:16:04,-1746.0,273.0,285.0
21:16:04,-1746.0,273.0,285.0
21:16:04,-1746.0,273.0,285.0
21:16:04,-1752.0,274.0,283.0
21:16:04,-1752.0,274.0,283.0
21:16:04,-1752.0,274.0,283.0
21:16:04,-1752.0,274.0,283.0
21:16:04,-1712.0,274.0,283.0
21:16:04,-1712.0,274.0,283.0
21:16:04,-1712.0,274.0,283.0
21:16:04,-1712.0,274.0,283.0
21:16:04,-1709.0,273.0,283.0
21:16:04,-1709.0,273.0,283.0
21:16:04,-1709.0,273.0,283.0
21:16:04,-1709.0,273.0,283.0
21:16:04,-1678.0,274.0,284.0
21:16:04,-1678.0,274.0,284.0
21:16:04,-1678.0,274.0,284.0
21:16:04,-1678.0,274.0,284.0
21:16:04,-1669.0,274.0,283.0
21:16:04,-1669.0,274.0,283.0
21:16:04,-1669.0,274.0,283.0
21:16:04,-1669.0,274.0,283.0
21:16:04,-1655.0,274.0,282.0
21:16:04,-1655.0,274.0,282.0
21:16:04,-1655.0,274.0,282.0
21:16:04,-1655.0,274.0,282.0
21:16:04,-1686.0,274.0,284.0
21:16:04,-1686.0,274.0,284.0
21:16:04,-1686.0,274.0,284.0
21:16:04,-1686.0,274.0,284.0
21:16:04,-1683.0,274.0,283.0
21:16:04,-1683.0,274.0,283.0
21:16:04,-1683.0,274.0,283.0
21:16:04,-1683.0,274.0,283.0
21:16:04,-1723.0,274.0,284.0
21:16:04,-1723.0,274.0,284.0
21:16:04,-1723.0,274.0,284.0
21:16:04,-1723.0,274.0,284.0
21:16:04,-1761.0,274.0,283.0
21:16:04,-1761.0,274.0,283.0
21:16:04,-1761.0,274.0,283.0
21:16:04,-1761.0,274.0,283.0
21:16:04,-1730.0,274.0,284.0
21:16:04,-1730.0,274.0,284.0
21:16:04,-1730.0,274.0,284.0
21:16:04,-1730.0,274.0,284.0
21:16:04,-1754.0,275.0,284.0
21:16:04,-1754.0,275.0,284.0
21:16:04,-1754.0,275.0,284.0
21:16:04,-1754.0,275.0,284.0
21:16:04,-1722.0,274.0,283.0
21:16:05,-1722.0,274.0,283.0
21:16:05,-1722.0,274.0,283.0
21:16:05,-1722.0,274.0,283.0
21:16:05,-1737.0,275.0,285.0
21:16:05,-1737.0,275.0,285.0
21:16:05,-1737.0,275.0,285.0
21:16:05,-1737.0,275.0,285.0
21:16:05,-1723.0,274.0,284.0
21:16:05,-1723.0,274.0,284.0
21:16:05,-1723.0,274.0,284.0
21:16:05,-1723.0,274.0,284.0
21:16:05,-1736.0,274.0,285.0
21:16:05,-1736.0,274.0,285.0
21:16:05,-1736.0,274.0,285.0
21:16:05,-1736.0,274.0,285.0
21:16:05,-1715.0,273.0,284.0
21:16:05,-1715.0,273.0,284.0
21:16:05,-1715.0,273.0,284.0
21:16:05,-1715.0,273.0,284.0
21:16:05,-1714.0,274.0,284.0
21:16:05,-1714.0,274.0,284.0
21:16:05,-1714.0,274.0,284.0
21:16:05,-1714.0,274.0,284.0
21:16:05,-1690.0,274.0,283.0
21:16:05,-1690.0,274.0,283.0
21:16:05,-1690.0,274.0,283.0
21:16:05,-1690.0,274.0,283.0
21:16:05,-1728.0,274.0,283.0
21:16:05,-1728.0,274.0,283.0
21:16:05,-1728.0,274.0,283.0
21:16:05,-1728.0,274.0,283.0
21:16:05,-1717.0,273.0,284.0
21:16:05,-1717.0,273.0,284.0
21:16:05,-1717.0,273.0,284.0
21:16:05,-1717.0,273.0,284.0
21:16:05,-1807.0,275.0,283.0
21:16:05,-1807.0,275.0,283.0
21:16:05,-1807.0,275.0,283.0
21:16:05,-1807.0,275.0,283.0
21:16:05,-1573.0,272.0,284.0
21:16:05,-1573.0,272.0,284.0
21:16:05,-1573.0,272.0,284.0
21:16:05,-1573.0,272.0,284.0
21:16:05,-1379.0,275.0,284.0
21:16:05,-1379.0,275.0,284.0
21:16:05,-1379.0,275.0,284.0
21:16:05,-1379.0,275.0,284.0
21:16:05,-1838.0,274.0,283.0
21:16:05,-1838.0,274.0,283.0
21:16:05,-1838.0,274.0,283.0
21:16:05,-1838.0,274.0,283.0
21:16:05,-1751.0,274.0,283.0
21:16:05,-1751.0,274.0,283.0
21:16:05,-1751.0,274.0,283.0
21:16:05,-1751.0,274.0,283.0
21:16:05,-1721.0,274.0,282.0
21:16:05,-1721.0,274.0,282.0
21:16:05,-1721.0,274.0,282.0
21:16:05,-1721.0,274.0,282.0
21:16:05,-1717.0,274.0,283.0
21:16:05,-1717.0,274.0,283.0
21:16:05,-1717.0,274.0,283.0
21:16:05,-1717.0,274.0,283.0
21:16:05,-1720.0,274.0,284.0
21:16:05,-1720.0,274.0,284.0
21:16:05,-1720.0,274.0,284.0
21:16:05,-1720.0,274.0,284.0
21:16:05,-1702.0,273.0,283.0
21:16:05,-1702.0,273.0,283.0
21:16:05,-1702.0,273.0,283.0
21:16:05,-1702.0,273.0,283.0
21:16:05,-1699.0,274.0,282.0
21:16:05,-1699.0,274.0,282.0
21:16:05,-1699.0,274.0,282.0
21:16:05,-1699.0,274.0,282.0
21:16:05,-1689.0,273.0,282.0
21:16:05,-1689.0,273.0,282.0
21:16:05,-1689.0,273.0,282.0
21:16:05,-1689.0,273.0,282.0
21:16:05,-1670.0,273.0,282.0
21:16:05,-1670.0,273.0,282.0
21:16:05,-1670.0,273.0,282.0
21:16:05,-1670.0,273.0,282.0
21:16:05,-1715.0,272.0,282.0
21:16:05,-1715.0,272.0,282.0
21:16:05,-1715.0,272.0,282.0
21:16:05,-1715.0,272.0,282.0
21:16:05,-1760.0,273.0,283.0
21:16:05,-1760.0,273.0,283.0
21:16:05,-1760.0,273.0,283.0
21:16:05,-1760.0,273.0,283.0
21:16:05,-1800.0,273.0,284.0
21:16:05,-1800.0,273.0,284.0
21:16:05,-1800.0,273.0,284.0
21:16:05,-1800.0,273.0,284.0
21:16:05,-1854.0,274.0,283.0
21:16:05,-1854.0,274.0,283.0
21:16:05,-1854.0,274.0,283.0
21:16:05,-1854.0,274.0,283.0
21:16:05,-1840.0,273.0,282.0
21:16:05,-1840.0,273.0,282.0
21:16:05,-1840.0,273.0,282.0
21:16:05,-1840.0,273.0,282.0
21:16:05,-1869.0,273.0,283.0
21:16:05,-1869.0,273.0,283.0
21:16:05,-1869.0,273.0,283.0
21:16:05,-1869.0,273.0,283.0
21:16:05,-1851.0,274.0,283.0
21:16:05,-1851.0,274.0,283.0
21:16:05,-1851.0,274.0,283.0
21:16:05,-1851.0,274.0,283.0
21:16:05,-1866.0,273.0,283.0
21:16:05,-1866.0,273.0,283.0
21:16:05,-1866.0,273.0,283.0
21:16:05,-1866.0,273.0,283.0
21:16:05,-1875.0,274.0,283.0
21:16:05,-1875.0,274.0,283.0
21:16:05,-1875.0,274.0,283.0
21:16:05,-1875.0,274.0,283.0
21:16:05,-1903.0,273.0,282.0
21:16:05,-1903.0,273.0,282.0
21:16:05,-1903.0,273.0,282.0
21:16:05,-1903.0,273.0,282.0
21:16:05,-1901.0,273.0,281.0
21:16:05,-1901.0,273.0,281.0
21:16:05,-1901.0,273.0,281.0
21:16:05,-1901.0,273.0,281.0
21:16:05,-1896.0,273.0,282.0
21:16:05,-1896.0,273.0,282.0
21:16:05,-1896.0,273.0,282.0
21:16:05,-1896.0,273.0,282.0
21:16:05,-1916.0,273.0,282.0
21:16:05,-1916.0,273.0,282.0
21:16:05,-1916.0,273.0,282.0
21:16:05,-1916.0,273.0,282.0
21:16:05,-1917.0,272.0,283.0
21:16:05,-1917.0,272.0,283.0
21:16:05,-1917.0,272.0,283.0
21:16:05,-1917.0,272.0,283.0
21:16:05,-1947.0,273.0,283.0
21:16:05,-1947.0,273.0,283.0
21:16:05,-1947.0,273.0,283.0
21:16:05,-1947.0,273.0,283.0
21:16:05,-1973.0,273.0,283.0
21:16:05,-1973.0,273.0,283.0
21:16:05,-1973.0,273.0,283.0
21:16:05,-1973.0,273.0,283.0
21:16:05,-1977.0,272.0,282.0
21:16:05,-1977.0,272.0,282.0
21:16:05,-1977.0,272.0,282.0
21:16:05,-1977.0,272.0,282.0
21:16:05,-1449.0,273.0,281.0
21:16:05,-1449.0,273.0,281.0
21:16:05,-1449.0,273.0,281.0
21:16:05,-1449.0,273.0,281.0
21:16:05,-2100.0,272.0,282.0
21:16:05,-2100.0,272.0,282.0
21:16:05,-2100.0,272.0,282.0
21:16:05,-2100.0,272.0,282.0
21:16:05,-1987.0,272.0,281.0
21:16:05,-1987.0,272.0,281.0
21:16:05,-1987.0,272.0,281.0
21:16:05,-1987.0,272.0,281.0
21:16:05,-2012.0,271.0,280.0
21:16:05,-2012.0,271.0,280.0
21:16:05,-2012.0,271.0,280.0
21:16:05,-2012.0,271.0,280.0
21:16:05,-1988.0,272.0,281.0
21:16:05,-1988.0,272.0,281.0
21:16:05,-1988.0,272.0,281.0
21:16:05,-1988.0,272.0,281.0
21:16:05,-1976.0,272.0,281.0
21:16:05,-1976.0,272.0,281.0
21:16:05,-1976.0,272.0,281.0
21:16:05,-1976.0,272.0,281.0
21:16:05,-1967.0,272.0,280.0
21:16:05,-1967.0,272.0,280.0
21:16:05,-1967.0,272.0,280.0
21:16:05,-1967.0,272.0,280.0
21:16:05,-1975.0,273.0,280.0
21:16:05,-1975.0,273.0,280.0
21:16:05,-1975.0,273.0,280.0
21:16:05,-1975.0,273.0,280.0
21:16:05,-1965.0,271.0,281.0
21:16:05,-1965.0,271.0,281.0
21:16:05,-1965.0,271.0,281.0
21:16:05,-1965.0,271.0,281.0
21:16:05,-1954.0,271.0,282.0
21:16:05,-1954.0,271.0,282.0
21:16:05,-1954.0,271.0,282.0
21:16:05,-1954.0,271.0,282.0
21:16:05,-1967.0,272.0,281.0
21:16:05,-1967.0,272.0,281.0
21:16:05,-1967.0,272.0,281.0
21:16:05,-1967.0,272.0,281.0
21:16:05,-2009.0,272.0,281.0
21:16:05,-2009.0,272.0,281.0
21:16:05,-2009.0,272.0,281.0
21:16:05,-2009.0,272.0,281.0
21:16:05,-2019.0,272.0,280.0
21:16:05,-2019.0,272.0,280.0
21:16:06,-2019.0,272.0,280.0
21:16:06,-2019.0,272.0,280.0
21:16:06,-2059.0,271.0,281.0
21:16:06,-2059.0,271.0,281.0
21:16:06,-2059.0,271.0,281.0
21:16:06,-2059.0,271.0,281.0
21:16:06,-2058.0,271.0,282.0
21:16:06,-2058.0,271.0,282.0
21:16:06,-2058.0,271.0,282.0
21:16:06,-2058.0,271.0,282.0
21:16:06,-2053.0,271.0,282.0
21:16:06,-2053.0,271.0,282.0
21:16:06,-2053.0,271.0,282.0
21:16:06,-2053.0,271.0,282.0
21:16:06,-2071.0,271.0,281.0
21:16:06,-2071.0,271.0,281.0
21:16:06,-2071.0,271.0,281.0
21:16:06,-2071.0,271.0,281.0
21:16:06,-2049.0,272.0,282.0
21:16:06,-2049.0,272.0,282.0
21:16:06,-2049.0,272.0,282.0
21:16:06,-2049.0,272.0,282.0
21:16:06,-2066.0,271.0,282.0
21:16:06,-2066.0,271.0,282.0
21:16:06,-2066.0,271.0,282.0
21:16:06,-2066.0,271.0,282.0
21:16:06,-2088.0,273.0,281.0
21:16:06,-2088.0,273.0,281.0
21:16:06,-2088.0,273.0,281.0
21:16:06,-2088.0,273.0,281.0
21:16:06,-2057.0,272.0,281.0
21:16:06,-2057.0,272.0,281.0
21:16:06,-2057.0,272.0,281.0
21:16:06,-2057.0,272.0,281.0
21:16:06,-2072.0,271.0,282.0
21:16:06,-2072.0,271.0,282.0
21:16:06,-2072.0,271.0,282.0
21:16:06,-2072.0,271.0,282.0
21:16:06,-2051.0,272.0,281.0
21:16:06,-2051.0,272.0,281.0
21:16:06,-2051.0,272.0,281.0
21:16:06,-2051.0,272.0,281.0
21:16:06,-2065.0,272.0,281.0
21:16:06,-2065.0,272.0,281.0
21:16:06,-2065.0,272.0,281.0
21:16:06,-2065.0,272.0,281.0
21:16:06,-2078.0,273.0,282.0
21:16:06,-2078.0,273.0,282.0
21:16:06,-2078.0,273.0,282.0
21:16:06,-2078.0,273.0,282.0
21:16:06,-2099.0,271.0,281.0
21:16:06,-2099.0,271.0,281.0
21:16:06,-2099.0,271.0,281.0
21:16:06,-2099.0,271.0,281.0
21:16:06,-2163.0,272.0,283.0
21:16:06,-2163.0,272.0,283.0
21:16:06,-2163.0,272.0,283.0
21:16:06,-2163.0,272.0,283.0
21:16:06,-1921.0,272.0,281.0
21:16:06,-1921.0,272.0,281.0
21:16:06,-1921.0,272.0,281.0
21:16:06,-1921.0,272.0,281.0
21:16:06,-1596.0,272.0,282.0
21:16:06,-1596.0,272.0,282.0
21:16:06,-1596.0,272.0,282.0
21:16:06,-1596.0,272.0,282.0
21:16:06,-2196.0,272.0,281.0
21:16:06,-2196.0,272.0,281.0
21:16:06,-2196.0,272.0,281.0
21:16:06,-2196.0,272.0,281.0
21:16:06,-2079.0,272.0,282.0
21:16:06,-2079.0,272.0,282.0
21:16:06,-2079.0,272.0,282.0
21:16:06,-2079.0,272.0,282.0
21:16:06,-2078.0,272.0,283.0
21:16:06,-2078.0,272.0,283.0
21:16:06,-2078.0,272.0,283.0
21:16:06,-2078.0,272.0,283.0
21:16:06,-2067.0,274.0,282.0
21:16:06,-2067.0,274.0,282.0
21:16:06,-2067.0,274.0,282.0
21:16:06,-2067.0,274.0,282.0
21:16:06,-2044.0,272.0,283.0
21:16:06,-2044.0,272.0,283.0
21:16:06,-2044.0,272.0,283.0
21:16:06,-2044.0,272.0,283.0
21:16:06,-2063.0,273.0,283.0
21:16:06,-2063.0,273.0,283.0
21:16:06,-2063.0,273.0,283.0
21:16:06,-2063.0,273.0,283.0
21:16:06,-2039.0,273.0,283.0
21:16:06,-2039.0,273.0,283.0
21:16:06,-2039.0,273.0,283.0
21:16:06,-2039.0,273.0,283.0
21:16:06,-2038.0,273.0,283.0
21:16:06,-2038.0,273.0,283.0
21:16:06,-2038.0,273.0,283.0
21:16:06,-2038.0,273.0,283.0
21:16:06,-2022.0,273.0,282.0
21:16:06,-2022.0,273.0,282.0
21:16:06,-2022.0,273.0,282.0
21:16:06,-2022.0,273.0,282.0
21:16:06,-2022.0,273.0,283.0
21:16:06,-2022.0,273.0,283.0
21:16:06,-2022.0,273.0,283.0
21:16:06,-2022.0,273.0,283.0
21:16:06,-2061.0,273.0,282.0
21:16:06,-2061.0,273.0,282.0
21:16:06,-2061.0,273.0,282.0
21:16:06,-2061.0,273.0,282.0
21:16:06,-2075.0,272.0,283.0
21:16:06,-2075.0,272.0,283.0
21:16:06,-2075.0,272.0,283.0
21:16:06,-2075.0,272.0,283.0
21:16:06,-2113.0,272.0,282.0
21:16:06,-2113.0,272.0,282.0
21:16:06,-2113.0,272.0,282.0
21:16:06,-2113.0,272.0,282.0
21:16:06,-2125.0,272.0,282.0
21:16:06,-2125.0,272.0,282.0
21:16:06,-2125.0,272.0,282.0
21:16:06,-2125.0,272.0,282.0
21:16:06,-2112.0,272.0,282.0
21:16:06,-2112.0,272.0,282.0
21:16:06,-2112.0,272.0,282.0
21:16:06,-2112.0,272.0,282.0
21:16:06,-2135.0,273.0,283.0
21:16:06,-2135.0,273.0,283.0
21:16:06,-2135.0,273.0,283.0
21:16:06,-2135.0,273.0,283.0
21:16:06,-2111.0,273.0,284.0
21:16:06,-2111.0,273.0,284.0
21:16:06,-2111.0,273.0,284.0
21:16:06,-2111.0,273.0,284.0
21:16:06,-2107.0,272.0,281.0
21:16:06,-2107.0,272.0,281.0
21:16:06,-2107.0,272.0,281.0
21:16:06,-2107.0,272.0,281.0
21:16:06,-2103.0,273.0,283.0
21:16:06,-2103.0,273.0,283.0
21:16:06,-2103.0,273.0,283.0
21:16:06,-2103.0,273.0,283.0
21:16:06,-2161.0,272.0,282.0
21:16:06,-2161.0,272.0,282.0
21:16:06,-2161.0,272.0,282.0
21:16:06,-2161.0,272.0,282.0
21:16:06,-2143.0,274.0,283.0
21:16:06,-2143.0,274.0,283.0
21:16:06,-2143.0,274.0,283.0
21:16:06,-2143.0,274.0,283.0
21:16:06,-2127.0,273.0,282.0
21:16:06,-2127.0,273.0,282.0
21:16:06,-2127.0,273.0,282.0
21:16:06,-2127.0,273.0,282.0
21:16:06,-2127.0,273.0,284.0
21:16:06,-2127.0,273.0,284.0
21:16:06,-2127.0,273.0,284.0
21:16:06,-2127.0,273.0,284.0
21:16:06,-2121.0,273.0,282.0
21:16:06,-2121.0,273.0,282.0
21:16:06,-2121.0,273.0,282.0
21:16:06,-2121.0,273.0,282.0
21:16:06,-2169.0,273.0,282.0
21:16:06,-2169.0,273.0,282.0
21:16:06,-2169.0,273.0,282.0
21:16:06,-2169.0,273.0,282.0
21:16:06,-2179.0,273.0,283.0
21:16:06,-2179.0,273.0,283.0
21:16:06,-2179.0,273.0,283.0
21:16:06,-2179.0,273.0,283.0
21:16:06,-2221.0,273.0,283.0
21:16:06,-2221.0,273.0,283.0
21:16:06,-2221.0,273.0,283.0
21:16:06,-2221.0,273.0,283.0
21:16:06,-2082.0,273.0,283.0
21:16:06,-2082.0,273.0,283.0
21:16:06,-2082.0,273.0,283.0
21:16:06,-2082.0,273.0,283.0
21:16:06,-1588.0,273.0,283.0
21:16:06,-1588.0,273.0,283.0
21:16:06,-1588.0,273.0,283.0
21:16:06,-1588.0,273.0,283.0
21:16:06,-2252.0,274.0,282.0
21:16:06,-2252.0,274.0,282.0
21:16:06,-2252.0,274.0,282.0
21:16:06,-2252.0,274.0,282.0
21:16:06,-2196.0,273.0,282.0
21:16:06,-2196.0,273.0,282.0
21:16:06,-2196.0,273.0,282.0
21:16:06,-2196.0,273.0,282.0
21:16:06,-2186.0,274.0,283.0
21:16:06,-2186.0,274.0,283.0
21:16:06,-2186.0,274.0,283.0
21:16:06,-2186.0,274.0,283.0
21:16:06,-2174.0,273.0,283.0
21:16:06,-2174.0,273.0,283.0
21:16:06,-2174.0,273.0,283.0
21:16:06,-2174.0,273.0,283.0
21:16:06,-2164.0,273.0,283.0
21:16:06,-2164.0,273.0,283.0
21:16:06,-2164.0,273.0,283.0
21:16:07,-2164.0,273.0,283.0
21:16:07,-2175.0,274.0,283.0
21:16:07,-2175.0,274.0,283.0
21:16:07,-2175.0,274.0,283.0
21:16:07,-2175.0,274.0,283.0
21:16:07,-2155.0,273.0,283.0
21:16:07,-2155.0,273.0,283.0
21:16:07,-2155.0,273.0,283.0
21:16:07,-2155.0,273.0,283.0
21:16:07,-2122.0,273.0,285.0
21:16:07,-2122.0,273.0,285.0
21:16:07,-2122.0,273.0,285.0
21:16:07,-2122.0,273.0,285.0
21:16:07,-2138.0,273.0,283.0
21:16:07,-2138.0,273.0,283.0
21:16:07,-2138.0,273.0,283.0
21:16:07,-2138.0,273.0,283.0
21:16:07,-2157.0,273.0,284.0
21:16:07,-2157.0,273.0,284.0
21:16:07,-2157.0,273.0,284.0
21:16:07,-2157.0,273.0,284.0
21:16:07,-2194.0,274.0,285.0
21:16:07,-2194.0,274.0,285.0
21:16:07,-2194.0,274.0,285.0
21:16:07,-2194.0,274.0,285.0
21:16:07,-2270.0,274.0,283.0
21:16:07,-2270.0,274.0,283.0
21:16:07,-2270.0,274.0,283.0
21:16:07,-2270.0,274.0,283.0
21:16:07,-2249.0,274.0,284.0
21:16:07,-2249.0,274.0,284.0
21:16:07,-2249.0,274.0,284.0
21:16:07,-2249.0,274.0,284.0
21:16:07,-2256.0,274.0,285.0
21:16:07,-2256.0,274.0,285.0
21:16:07,-2256.0,274.0,285.0
21:16:07,-2256.0,274.0,285.0
21:16:07,-2281.0,275.0,285.0
21:16:07,-2281.0,275.0,285.0
21:16:07,-2281.0,275.0,285.0
21:16:07,-2281.0,275.0,285.0
21:16:07,-2279.0,274.0,284.0
21:16:07,-2279.0,274.0,284.0
21:16:07,-2279.0,274.0,284.0
21:16:07,-2279.0,274.0,284.0
21:16:07,-2304.0,274.0,284.0
21:16:07,-2304.0,274.0,284.0
21:16:07,-2304.0,274.0,284.0
21:16:07,-2304.0,274.0,284.0
21:16:07,-2304.0,275.0,284.0
21:16:07,-2304.0,275.0,284.0
21:16:07,-2304.0,275.0,284.0
21:16:07,-2304.0,275.0,284.0
21:16:07,-2285.0,275.0,284.0
21:16:07,-2285.0,275.0,284.0
21:16:07,-2285.0,275.0,284.0
21:16:07,-2285.0,275.0,284.0
21:16:07,-2302.0,274.0,284.0
21:16:07,-2302.0,274.0,284.0
21:16:07,-2302.0,274.0,284.0
21:16:07,-2302.0,274.0,284.0
21:16:07,-2339.0,274.0,285.0
21:16:07,-2339.0,274.0,285.0
21:16:07,-2339.0,274.0,285.0
21:16:07,-2339.0,274.0,285.0
21:16:07,-2345.0,274.0,284.0
21:16:07,-2345.0,274.0,284.0
21:16:07,-2345.0,274.0,284.0
21:16:07,-2345.0,274.0,284.0
21:16:07,-2365.0,274.0,285.0
21:16:07,-2365.0,274.0,285.0
21:16:07,-2365.0,274.0,285.0
21:16:07,-2365.0,274.0,285.0
21:16:07,-2347.0,275.0,284.0
21:16:07,-2347.0,275.0,284.0
21:16:07,-2347.0,275.0,284.0
21:16:07,-2347.0,275.0,284.0
21:16:07,-2380.0,274.0,284.0
21:16:07,-2380.0,274.0,284.0
21:16:07,-2380.0,274.0,284.0
21:16:07,-2380.0,274.0,284.0
21:16:07,-2412.0,274.0,285.0
21:16:07,-2412.0,274.0,285.0
21:16:07,-2412.0,274.0,285.0
21:16:07,-2412.0,274.0,285.0
21:16:07,-2388.0,274.0,284.0
21:16:07,-2388.0,274.0,284.0
21:16:07,-2388.0,274.0,284.0
21:16:07,-2388.0,274.0,284.0
21:16:07,-2412.0,275.0,284.0
21:16:07,-2412.0,275.0,284.0
21:16:07,-2412.0,275.0,284.0
21:16:07,-2412.0,275.0,284.0
21:16:07,-2436.0,275.0,285.0
21:16:07,-2436.0,275.0,285.0
21:16:07,-2436.0,275.0,285.0
21:16:07,-2436.0,275.0,285.0
21:16:07,-2557.0,275.0,283.0
21:16:07,-2557.0,275.0,283.0
21:16:07,-2557.0,275.0,283.0
21:16:07,-2557.0,275.0,283.0
21:16:07,-1938.0,274.0,284.0
21:16:07,-1938.0,274.0,284.0
21:16:07,-1938.0,274.0,284.0
21:16:07,-1938.0,274.0,284.0
21:16:07,-2505.0,274.0,284.0
21:16:07,-2505.0,274.0,284.0
21:16:07,-2505.0,274.0,284.0
21:16:07,-2505.0,274.0,284.0
21:16:07,-2468.0,275.0,284.0
21:16:07,-2468.0,275.0,284.0
21:16:07,-2468.0,275.0,284.0
21:16:07,-2468.0,275.0,284.0
21:16:07,-2449.0,274.0,283.0
21:16:07,-2449.0,274.0,283.0
21:16:07,-2449.0,274.0,283.0
21:16:07,-2449.0,274.0,283.0
21:16:07,-2466.0,275.0,282.0
21:16:07,-2466.0,275.0,282.0
21:16:07,-2466.0,275.0,282.0
21:16:07,-2466.0,275.0,282.0
21:16:07,-2479.0,275.0,285.0
21:16:07,-2479.0,275.0,285.0
21:16:07,-2479.0,275.0,285.0
21:16:07,-2479.0,275.0,285.0
21:16:07,-2414.0,273.0,284.0
21:16:07,-2414.0,273.0,284.0
21:16:07,-2414.0,273.0,284.0
21:16:07,-2414.0,273.0,284.0
21:16:07,-2424.0,274.0,284.0
21:16:07,-2424.0,274.0,284.0
21:16:07,-2424.0,274.0,284.0
21:16:07,-2424.0,274.0,284.0
21:16:07,-2432.0,275.0,283.0
21:16:07,-2432.0,275.0,283.0
21:16:07,-2432.0,275.0,283.0
21:16:07,-2432.0,275.0,283.0
21:16:07,-2359.0,274.0,284.0
21:16:07,-2359.0,274.0,284.0
21:16:07,-2359.0,274.0,284.0
21:16:07,-2359.0,274.0,284.0
21:16:07,-2411.0,275.0,286.0
21:16:07,-2411.0,275.0,286.0
21:16:07,-2411.0,275.0,286.0
21:16:07,-2411.0,275.0,286.0
21:16:07,-2446.0,273.0,284.0
21:16:07,-2446.0,273.0,284.0
21:16:07,-2446.0,273.0,284.0
21:16:07,-2446.0,273.0,284.0
21:16:07,-2474.0,273.0,285.0
21:16:07,-2474.0,273.0,285.0
21:16:07,-2474.0,273.0,285.0
21:16:07,-2474.0,273.0,285.0
21:16:07,-2522.0,274.0,285.0
21:16:07,-2522.0,274.0,285.0
21:16:07,-2522.0,274.0,285.0
21:16:07,-2522.0,274.0,285.0
21:16:07,-2541.0,274.0,284.0
21:16:07,-2541.0,274.0,284.0
21:16:07,-2541.0,274.0,284.0
21:16:07,-2541.0,274.0,284.0
21:16:07,-2569.0,273.0,284.0
21:16:07,-2569.0,273.0,284.0
21:16:07,-2569.0,273.0,284.0
21:16:07,-2569.0,273.0,284.0
21:16:07,-2554.0,274.0,284.0
21:16:07,-2554.0,274.0,284.0
21:16:07,-2554.0,274.0,284.0
21:16:07,-2554.0,274.0,284.0
21:16:07,-2539.0,274.0,285.0
21:16:07,-2539.0,274.0,285.0
21:16:07,-2539.0,274.0,285.0
21:16:07,-2539.0,274.0,285.0
21:16:07,-2583.0,274.0,284.0
21:16:07,-2583.0,274.0,284.0
21:16:07,-2583.0,274.0,284.0
21:16:07,-2583.0,274.0,284.0
21:16:07,-2560.0,273.0,284.0
21:16:07,-2560.0,273.0,284.0
21:16:07,-2560.0,273.0,284.0
21:16:07,-2560.0,273.0,284.0
21:16:07,-2539.0,273.0,283.0
21:16:07,-2539.0,273.0,283.0
21:16:07,-2539.0,273.0,283.0
21:16:07,-2539.0,273.0,283.0
21:16:07,-2540.0,275.0,284.0
21:16:07,-2540.0,275.0,284.0
21:16:07,-2540.0,275.0,284.0
21:16:07,-2540.0,275.0,284.0
21:16:07,-2574.0,274.0,285.0
21:16:07,-2574.0,274.0,285.0
21:16:07,-2574.0,274.0,285.0
21:16:07,-2574.0,274.0,285.0
21:16:07,-2570.0,275.0,284.0
21:16:07,-2570.0,275.0,284.0
21:16:07,-2570.0,275.0,284.0
21:16:07,-2570.0,275.0,284.0
21:16:07,-2599.0,274.0,284.0
21:16:07,-2599.0,274.0,284.0
21:16:07,-2599.0,274.0,284.0
21:16:08,-2599.0,274.0,284.0
21:16:08,-2573.0,275.0,285.0
21:16:08,-2573.0,275.0,285.0
21:16:08,-2573.0,275.0,285.0
21:16:08,-2573.0,275.0,285.0
21:16:08,-2544.0,275.0,284.0
21:16:08,-2544.0,275.0,284.0
21:16:08,-2544.0,275.0,284.0
21:16:08,-2544.0,275.0,284.0
21:16:08,-2477.0,274.0,284.0
21:16:08,-2477.0,274.0,284.0
21:16:08,-2477.0,274.0,284.0
21:16:08,-2477.0,274.0,284.0
21:16:08,-2541.0,275.0,284.0
21:16:08,-2541.0,275.0,284.0
21:16:08,-2541.0,275.0,284.0
21:16:08,-2541.0,275.0,284.0
21:16:08,-2565.0,274.0,284.0
21:16:08,-2565.0,274.0,284.0
21:16:08,-2565.0,274.0,284.0
21:16:08,-2565.0,274.0,284.0
21:16:08,-2557.0,274.0,284.0
21:16:08,-2557.0,274.0,284.0
21:16:08,-2557.0,274.0,284.0
21:16:08,-2557.0,274.0,284.0
21:16:08,-2729.0,274.0,284.0
21:16:08,-2729.0,274.0,284.0
21:16:08,-2729.0,274.0,284.0
21:16:08,-2729.0,274.0,284.0
21:16:08,-1999.0,274.0,284.0
21:16:08,-1999.0,274.0,284.0
21:16:08,-1999.0,274.0,284.0
21:16:08,-1999.0,274.0,284.0
21:16:08,-2495.0,275.0,284.0
21:16:08,-2495.0,275.0,284.0
21:16:08,-2495.0,275.0,284.0
21:16:08,-2495.0,275.0,284.0
21:16:08,-2591.0,275.0,284.0
21:16:08,-2591.0,275.0,284.0
21:16:08,-2591.0,275.0,284.0
21:16:08,-2591.0,275.0,284.0
21:16:08,-2602.0,274.0,284.0
21:16:08,-2602.0,274.0,284.0
21:16:08,-2602.0,274.0,284.0
21:16:08,-2602.0,274.0,284.0
21:16:08,-2601.0,274.0,284.0
21:16:08,-2601.0,274.0,284.0
21:16:08,-2601.0,274.0,284.0
21:16:08,-2601.0,274.0,284.0
21:16:08,-2443.0,275.0,284.0
21:16:08,-2443.0,275.0,284.0
21:16:08,-2443.0,275.0,284.0
21:16:08,-2443.0,275.0,284.0
21:16:08,-2521.0,276.0,284.0
21:16:08,-2521.0,276.0,284.0
21:16:08,-2521.0,276.0,284.0
21:16:08,-2521.0,276.0,284.0
21:16:08,-2576.0,274.0,284.0
21:16:08,-2576.0,274.0,284.0
21:16:08,-2576.0,274.0,284.0
21:16:08,-2576.0,274.0,284.0
21:16:08,-2484.0,274.0,284.0
21:16:08,-2484.0,274.0,284.0
21:16:08,-2484.0,274.0,284.0
21:16:08,-2484.0,274.0,284.0
21:16:08,-2531.0,274.0,284.0
21:16:08,-2531.0,274.0,284.0
21:16:08,-2531.0,274.0,284.0
21:16:08,-2531.0,274.0,284.0
21:16:08,-2420.0,275.0,283.0
21:16:08,-2420.0,275.0,283.0
21:16:08,-2420.0,275.0,283.0
21:16:08,-2420.0,275.0,283.0
21:16:08,-2560.0,274.0,283.0
21:16:08,-2560.0,274.0,283.0
21:16:08,-2560.0,274.0,283.0
21:16:08,-2560.0,274.0,283.0
21:16:08,-2471.0,275.0,282.0
21:16:08,-2471.0,275.0,282.0
21:16:08,-2471.0,275.0,282.0
21:16:08,-2471.0,275.0,282.0
21:16:08,-2544.0,274.0,283.0
21:16:08,-2544.0,274.0,283.0
21:16:08,-2544.0,274.0,283.0
21:16:08,-2544.0,274.0,283.0
21:16:08,-2575.0,274.0,284.0
21:16:08,-2575.0,274.0,284.0
21:16:08,-2575.0,274.0,284.0
21:16:08,-2575.0,274.0,284.0
21:16:08,-2566.0,275.0,284.0
21:16:08,-2566.0,275.0,284.0
21:16:08,-2566.0,275.0,284.0
21:16:08,-2566.0,275.0,284.0
21:16:08,-2525.0,274.0,284.0
21:16:08,-2525.0,274.0,284.0
21:16:08,-2525.0,274.0,284.0
21:16:08,-2525.0,274.0,284.0
21:16:08,-2617.0,274.0,284.0
21:16:08,-2617.0,274.0,284.0
21:16:08,-2617.0,274.0,284.0
21:16:08,-2617.0,274.0,284.0
21:16:08,-2614.0,275.0,284.0
21:16:08,-2614.0,275.0,284.0
21:16:08,-2614.0,275.0,284.0
21:16:08,-2614.0,275.0,284.0
21:16:08,-2610.0,274.0,284.0
21:16:08,-2610.0,274.0,284.0
21:16:08,-2610.0,274.0,284.0
21:16:08,-2610.0,274.0,284.0
21:16:08,-2540.0,273.0,283.0
21:16:08,-2540.0,273.0,283.0
21:16:08,-2540.0,273.0,283.0
21:16:08,-2540.0,273.0,283.0
21:16:08,-2419.0,273.0,284.0
21:16:08,-2419.0,273.0,284.0
21:16:08,-2419.0,273.0,284.0
21:16:08,-2419.0,273.0,284.0
21:16:08,-2570.0,273.0,283.0
21:16:08,-2570.0,273.0,283.0
21:16:08,-2570.0,273.0,283.0
21:16:08,-2570.0,273.0,283.0
21:16:08,-2692.0,273.0,282.0
21:16:08,-2692.0,273.0,282.0
21:16:08,-2692.0,273.0,282.0
21:16:08,-2692.0,273.0,282.0
21:16:08,-2637.0,273.0,283.0
21:16:08,-2637.0,273.0,283.0
21:16:08,-2637.0,273.0,283.0
21:16:08,-2637.0,273.0,283.0
21:16:08,-2633.0,273.0,284.0
21:16:08,-2633.0,273.0,284.0
21:16:08,-2633.0,273.0,284.0
21:16:08,-2633.0,273.0,284.0
21:16:08,-2546.0,273.0,282.0
21:16:08,-2546.0,273.0,282.0
21:16:08,-2546.0,273.0,282.0
21:16:08,-2546.0,273.0,282.0
21:16:08,-2616.0,274.0,283.0
21:16:08,-2616.0,274.0,283.0
21:16:08,-2616.0,274.0,283.0
21:16:08,-2616.0,274.0,283.0
21:16:08,-2534.0,273.0,282.0
21:16:08,-2534.0,273.0,282.0
21:16:08,-2534.0,273.0,282.0
21:16:08,-2534.0,273.0,282.0
21:16:08,-2572.0,274.0,284.0
21:16:08,-2572.0,274.0,284.0
21:16:08,-2572.0,274.0,284.0
21:16:08,-2572.0,274.0,284.0
21:16:08,-2627.0,272.0,283.0
21:16:08,-2627.0,272.0,283.0
21:16:08,-2627.0,272.0,283.0
21:16:08,-2627.0,272.0,283.0
21:16:08,-2695.0,273.0,282.0
21:16:08,-2695.0,273.0,282.0
21:16:08,-2695.0,273.0,282.0
21:16:08,-2695.0,273.0,282.0
21:16:08,-2317.0,272.0,283.0
21:16:08,-2317.0,272.0,283.0
21:16:08,-2317.0,272.0,283.0
21:16:08,-2317.0,272.0,283.0
21:16:08,-2045.0,271.0,282.0
21:16:08,-2045.0,271.0,282.0
21:16:08,-2045.0,271.0,282.0
21:16:08,-2045.0,271.0,282.0
21:16:08,-2743.0,273.0,282.0
21:16:08,-2743.0,273.0,282.0
21:16:08,-2743.0,273.0,282.0
21:16:08,-2743.0,273.0,282.0
21:16:08,-2579.0,272.0,282.0
21:16:08,-2579.0,272.0,282.0
21:16:08,-2579.0,272.0,282.0
21:16:08,-2579.0,272.0,282.0
21:16:08,-2623.0,274.0,283.0
21:16:08,-2623.0,274.0,283.0
21:16:08,-2623.0,274.0,283.0
21:16:08,-2623.0,274.0,283.0
21:16:08,-2568.0,272.0,282.0
21:16:08,-2568.0,272.0,282.0
21:16:08,-2568.0,272.0,282.0
21:16:08,-2568.0,272.0,282.0
21:16:08,-2528.0,272.0,281.0
21:16:08,-2528.0,272.0,281.0
21:16:08,-2528.0,272.0,281.0
21:16:08,-2528.0,272.0,281.0
21:16:08,-2505.0,272.0,282.0
21:16:08,-2505.0,272.0,282.0
21:16:08,-2505.0,272.0,282.0
21:16:08,-2505.0,272.0,282.0
21:16:08,-2506.0,273.0,284.0
21:16:08,-2506.0,273.0,284.0
21:16:08,-2506.0,273.0,284.0
21:16:08,-2506.0,273.0,284.0
21:16:08,-2465.0,273.0,281.0
21:16:08,-2465.0,273.0,281.0
21:16:08,-2465.0,273.0,281.0
21:16:08,-2465.0,273.0,281.0
21:16:08,-2522.0,272.0,282.0
21:16:08,-2522.0,272.0,282.0
21:16:08,-2522.0,272.0,282.0
21:16:08,-2522.0,272.0,282.0
21:16:09,-2491.0,273.0,283.0
21:16:09,-2491.0,273.0,283.0
21:16:09,-2491.0,273.0,283.0
21:16:09,-2491.0,273.0,283.0
21:16:09,-2565.0,272.0,280.0
21:16:09,-2565.0,272.0,280.0
21:16:09,-2565.0,272.0,280.0
21:16:09,-2565.0,272.0,280.0
21:16:09,-2578.0,271.0,281.0
21:16:09,-2578.0,271.0,281.0
21:16:09,-2578.0,271.0,281.0
21:16:09,-2578.0,271.0,281.0
21:16:09,-2626.0,272.0,282.0
21:16:09,-2626.0,272.0,282.0
21:16:09,-2626.0,272.0,282.0
21:16:09,-2626.0,272.0,282.0
21:16:09,-2582.0,271.0,281.0
21:16:09,-2582.0,271.0,281.0
21:16:09,-2582.0,271.0,281.0
21:16:09,-2582.0,271.0,281.0
21:16:09,-2548.0,272.0,281.0
21:16:09,-2548.0,272.0,281.0
21:16:09,-2548.0,272.0,281.0
21:16:09,-2548.0,272.0,281.0
21:16:09,-2537.0,272.0,282.0
21:16:09,-2537.0,272.0,282.0
21:16:09,-2537.0,272.0,282.0
21:16:09,-2537.0,272.0,282.0
21:16:09,-2544.0,271.0,282.0
21:16:09,-2544.0,271.0,282.0
21:16:09,-2544.0,271.0,282.0
21:16:09,-2544.0,271.0,282.0
21:16:09,-2571.0,272.0,281.0
21:16:09,-2571.0,272.0,281.0
21:16:09,-2571.0,272.0,281.0
21:16:09,-2571.0,272.0,281.0
21:16:09,-2540.0,271.0,281.0
21:16:09,-2540.0,271.0,281.0
21:16:09,-2540.0,271.0,281.0
21:16:09,-2540.0,271.0,281.0
21:16:09,-2531.0,272.0,282.0
21:16:09,-2531.0,272.0,282.0
21:16:09,-2531.0,272.0,282.0
21:16:09,-2531.0,272.0,282.0
21:16:09,-2546.0,273.0,280.0
21:16:09,-2546.0,273.0,280.0
21:16:09,-2546.0,273.0,280.0
21:16:09,-2546.0,273.0,280.0
21:16:09,-2516.0,271.0,281.0
21:16:09,-2516.0,271.0,281.0
21:16:09,-2516.0,271.0,281.0
21:16:09,-2516.0,271.0,281.0
21:16:09,-2529.0,272.0,282.0
21:16:09,-2529.0,272.0,282.0
21:16:09,-2529.0,272.0,282.0
21:16:09,-2529.0,272.0,282.0
21:16:09,-2520.0,271.0,282.0
21:16:09,-2520.0,271.0,282.0
21:16:09,-2520.0,271.0,282.0
21:16:09,-2520.0,271.0,282.0
21:16:09,-2505.0,271.0,282.0
21:16:09,-2505.0,271.0,282.0
21:16:09,-2505.0,271.0,282.0
21:16:09,-2505.0,271.0,282.0
21:16:09,-2547.0,272.0,283.0
21:16:09,-2547.0,272.0,283.0
21:16:09,-2547.0,272.0,283.0
21:16:09,-2547.0,272.0,283.0
21:16:09,-2526.0,271.0,282.0
21:16:09,-2526.0,271.0,282.0
21:16:09,-2526.0,271.0,282.0
21:16:09,-2526.0,271.0,282.0
21:16:09,-2636.0,272.0,282.0
21:16:09,-2636.0,272.0,282.0
21:16:09,-2636.0,272.0,282.0
21:16:09,-2636.0,272.0,282.0
21:16:09,-2196.0,272.0,283.0
21:16:09,-2196.0,272.0,283.0
21:16:09,-2196.0,272.0,283.0
21:16:09,-2196.0,272.0,283.0
21:16:09,-2142.0,272.0,282.0
21:16:09,-2142.0,272.0,282.0
21:16:09,-2142.0,272.0,282.0
21:16:09,-2142.0,272.0,282.0
21:16:09,-2655.0,272.0,283.0
21:16:09,-2655.0,272.0,283.0
21:16:09,-2655.0,272.0,283.0
21:16:09,-2655.0,272.0,283.0
21:16:09,-2483.0,272.0,284.0
21:16:09,-2483.0,272.0,284.0
21:16:09,-2483.0,272.0,284.0
21:16:09,-2483.0,272.0,284.0
21:16:09,-2487.0,273.0,283.0
21:16:09,-2487.0,273.0,283.0
21:16:09,-2487.0,273.0,283.0
21:16:09,-2487.0,273.0,283.0
21:16:09,-2437.0,273.0,283.0
21:16:09,-2437.0,273.0,283.0
21:16:09,-2437.0,273.0,283.0
21:16:09,-2437.0,273.0,283.0
21:16:09,-2458.0,274.0,282.0
21:16:09,-2458.0,274.0,282.0
21:16:09,-2458.0,274.0,282.0
21:16:09,-2458.0,274.0,282.0
21:16:09,-2471.0,274.0,283.0
21:16:09,-2471.0,274.0,283.0
21:16:09,-2471.0,274.0,283.0
21:16:09,-2471.0,274.0,283.0
21:16:09,-2393.0,273.0,281.0
21:16:09,-2393.0,273.0,281.0
21:16:09,-2393.0,273.0,281.0
21:16:09,-2393.0,273.0,281.0
21:16:09,-2370.0,273.0,282.0
21:16:09,-2370.0,273.0,282.0
21:16:09,-2370.0,273.0,282.0
21:16:09,-2370.0,273.0,282.0
21:16:09,-2361.0,272.0,283.0
21:16:09,-2361.0,272.0,283.0
21:16:09,-2361.0,272.0,283.0
21:16:09,-2361.0,272.0,283.0
21:16:09,-2423.0,273.0,283.0
21:16:09,-2423.0,273.0,283.0
21:16:09,-2423.0,273.0,283.0
21:16:09,-2423.0,273.0,283.0
21:16:09,-2433.0,274.0,283.0
21:16:09,-2433.0,274.0,283.0
21:16:09,-2433.0,274.0,283.0
21:16:09,-2433.0,274.0,283.0
21:16:09,-2425.0,273.0,282.0
21:16:09,-2425.0,273.0,282.0
21:16:09,-2425.0,273.0,282.0
21:16:09,-2425.0,273.0,282.0
21:16:09,-2473.0,272.0,284.0
21:16:09,-2473.0,272.0,284.0
21:16:09,-2473.0,272.0,284.0
21:16:09,-2473.0,272.0,284.0
21:16:09,-2487.0,274.0,283.0
21:16:09,-2487.0,274.0,283.0
21:16:09,-2487.0,274.0,283.0
21:16:09,-2487.0,274.0,283.0
21:16:09,-2505.0,272.0,283.0
21:16:09,-2505.0,272.0,283.0
21:16:09,-2505.0,272.0,283.0
21:16:09,-2505.0,272.0,283.0
21:16:09,-2451.0,273.0,283.0
21:16:09,-2451.0,273.0,283.0
21:16:09,-2451.0,273.0,283.0
21:16:09,-2451.0,273.0,283.0
21:16:09,-2454.0,274.0,284.0
21:16:09,-2454.0,274.0,284.0
21:16:09,-2454.0,274.0,284.0
21:16:09,-2454.0,274.0,284.0
21:16:09,-2421.0,273.0,283.0
21:16:09,-2421.0,273.0,283.0
21:16:09,-2421.0,273.0,283.0
21:16:09,-2421.0,273.0,283.0
21:16:09,-2425.0,273.0,283.0
21:16:09,-2425.0,273.0,283.0
21:16:09,-2425.0,273.0,283.0
21:16:09,-2425.0,273.0,283.0
21:16:09,-2471.0,273.0,282.0
21:16:09,-2471.0,273.0,282.0
21:16:09,-2471.0,273.0,282.0
21:16:09,-2471.0,273.0,282.0
21:16:09,-2428.0,272.0,282.0
21:16:09,-2428.0,272.0,282.0
21:16:09,-2428.0,272.0,282.0
21:16:09,-2428.0,272.0,282.0
21:16:09,-2443.0,272.0,283.0
21:16:09,-2443.0,272.0,283.0
21:16:09,-2443.0,272.0,283.0
21:16:09,-2443.0,272.0,283.0
21:16:09,-2456.0,272.0,281.0
21:16:09,-2456.0,272.0,281.0
21:16:09,-2456.0,272.0,281.0
21:16:09,-2456.0,272.0,281.0
21:16:09,-2419.0,273.0,282.0
21:16:09,-2419.0,273.0,282.0
21:16:09,-2419.0,273.0,282.0
21:16:09,-2419.0,273.0,282.0
21:16:09,-2434.0,271.0,282.0
21:16:09,-2434.0,271.0,282.0
21:16:09,-2434.0,271.0,282.0
21:16:09,-2434.0,271.0,282.0
21:16:09,-2371.0,273.0,281.0
21:16:09,-2371.0,273.0,281.0
21:16:09,-2371.0,273.0,281.0
21:16:09,-2371.0,273.0,281.0
21:16:09,-2410.0,273.0,283.0
21:16:09,-2410.0,273.0,283.0
21:16:09,-2410.0,273.0,283.0
21:16:09,-2410.0,273.0,283.0
21:16:09,-2402.0,273.0,282.0
21:16:09,-2402.0,273.0,282.0
21:16:09,-2402.0,273.0,282.0
21:16:09,-2402.0,273.0,282.0
21:16:09,-2521.0,272.0,281.0
21:16:09,-2521.0,272.0,281.0
21:16:09,-2521.0,272.0,281.0
21:16:09,-2521.0,272.0,281.0
21:16:09,-2096.0,273.0,282.0
21:16:10,-2096.0,273.0,282.0
21:16:10,-2096.0,273.0,282.0
21:16:10,-2096.0,273.0,282.0
21:16:10,-2081.0,273.0,283.0
21:16:10,-2081.0,273.0,283.0
21:16:10,-2081.0,273.0,283.0
21:16:10,-2081.0,273.0,283.0
21:16:10,-2450.0,272.0,282.0
21:16:10,-2450.0,272.0,282.0
21:16:10,-2450.0,272.0,282.0
21:16:10,-2450.0,272.0,282.0
21:16:10,-2364.0,272.0,284.0
21:16:10,-2364.0,272.0,284.0
21:16:10,-2364.0,272.0,284.0
21:16:10,-2364.0,272.0,284.0
21:16:10,-2369.0,274.0,282.0
21:16:10,-2369.0,274.0,282.0
21:16:10,-2369.0,274.0,282.0
21:16:10,-2369.0,274.0,282.0
21:16:10,-2317.0,273.0,282.0
21:16:10,-2317.0,273.0,282.0
21:16:10,-2317.0,273.0,282.0
21:16:10,-2317.0,273.0,282.0
21:16:10,-2289.0,273.0,283.0
21:16:10,-2289.0,273.0,283.0
21:16:10,-2289.0,273.0,283.0
21:16:10,-2289.0,273.0,283.0
21:16:10,-2261.0,273.0,283.0
21:16:10,-2261.0,273.0,283.0
21:16:10,-2261.0,273.0,283.0
21:16:10,-2261.0,273.0,283.0
21:16:10,-2270.0,273.0,283.0
21:16:10,-2270.0,273.0,283.0
21:16:10,-2270.0,273.0,283.0
21:16:10,-2270.0,273.0,283.0
21:16:10,-2214.0,273.0,284.0
21:16:10,-2214.0,273.0,284.0
21:16:10,-2214.0,273.0,284.0
21:16:10,-2214.0,273.0,284.0
21:16:10,-2206.0,273.0,284.0
21:16:10,-2206.0,273.0,284.0
21:16:10,-2206.0,273.0,284.0
21:16:10,-2206.0,273.0,284.0
21:16:10,-2246.0,275.0,283.0
21:16:10,-2246.0,275.0,283.0
21:16:10,-2246.0,275.0,283.0
21:16:10,-2246.0,275.0,283.0
21:16:10,-2257.0,274.0,283.0
21:16:10,-2257.0,274.0,283.0
21:16:10,-2257.0,274.0,283.0
21:16:10,-2257.0,274.0,283.0
21:16:10,-2284.0,274.0,282.0
21:16:10,-2284.0,274.0,282.0
21:16:10,-2284.0,274.0,282.0
21:16:10,-2284.0,274.0,282.0
21:16:10,-2282.0,273.0,283.0
21:16:10,-2282.0,273.0,283.0
21:16:10,-2282.0,273.0,283.0
21:16:10,-2282.0,273.0,283.0
21:16:10,-2243.0,274.0,283.0
21:16:10,-2243.0,274.0,283.0
21:16:10,-2243.0,274.0,283.0
21:16:10,-2243.0,274.0,283.0
21:16:10,-2259.0,274.0,283.0
21:16:10,-2259.0,274.0,283.0
21:16:10,-2259.0,274.0,283.0
21:16:10,-2259.0,274.0,283.0
21:16:10,-2252.0,274.0,283.0
21:16:10,-2252.0,274.0,283.0
21:16:10,-2252.0,274.0,283.0
21:16:10,-2252.0,274.0,283.0
21:16:10,-2203.0,274.0,283.0
21:16:10,-2203.0,274.0,283.0
21:16:10,-2203.0,274.0,283.0
21:16:10,-2203.0,274.0,283.0
21:16:10,-2226.0,273.0,282.0
21:16:10,-2226.0,273.0,282.0
21:16:10,-2226.0,273.0,282.0
21:16:10,-2226.0,273.0,282.0
21:16:10,-2192.0,274.0,284.0
21:16:10,-2192.0,274.0,284.0
21:16:10,-2192.0,274.0,284.0
21:16:10,-2192.0,274.0,284.0
21:16:10,-2162.0,274.0,282.0
21:16:10,-2162.0,274.0,282.0
21:16:10,-2162.0,274.0,282.0
21:16:10,-2162.0,274.0,282.0
21:16:10,-2163.0,274.0,283.0
21:16:10,-2163.0,274.0,283.0
21:16:10,-2163.0,274.0,283.0
21:16:10,-2163.0,274.0,283.0
21:16:10,-2181.0,273.0,283.0
21:16:10,-2181.0,273.0,283.0
21:16:10,-2181.0,273.0,283.0
21:16:10,-2181.0,273.0,283.0
21:16:10,-2156.0,275.0,282.0
21:16:10,-2156.0,275.0,282.0
21:16:10,-2156.0,275.0,282.0
21:16:10,-2156.0,275.0,282.0
21:16:10,-2110.0,274.0,283.0
21:16:10,-2110.0,274.0,283.0
21:16:10,-2110.0,274.0,283.0
21:16:10,-2110.0,274.0,283.0
21:16:10,-2084.0,274.0,284.0
21:16:10,-2084.0,274.0,284.0
21:16:10,-2084.0,274.0,284.0
21:16:10,-2084.0,274.0,284.0
21:16:10,-2121.0,276.0,284.0
21:16:10,-2121.0,276.0,284.0
21:16:10,-2121.0,276.0,284.0
21:16:10,-2121.0,276.0,284.0
21:16:10,-2109.0,275.0,284.0
21:16:10,-2109.0,275.0,284.0
21:16:10,-2109.0,275.0,284.0
21:16:10,-2109.0,275.0,284.0
21:16:10,-2113.0,274.0,284.0
21:16:10,-2113.0,274.0,284.0
21:16:10,-2113.0,274.0,284.0
21:16:10,-2113.0,274.0,284.0
21:16:10,-2152.0,273.0,283.0
21:16:10,-2152.0,273.0,283.0
21:16:10,-2152.0,273.0,283.0
21:16:10,-2152.0,273.0,283.0
21:16:10,-1534.0,276.0,284.0
21:16:10,-1534.0,276.0,284.0
21:16:10,-1534.0,276.0,284.0
21:16:10,-1534.0,276.0,284.0
21:16:10,-2109.0,274.0,284.0
21:16:10,-2109.0,274.0,284.0
21:16:10,-2109.0,274.0,284.0
21:16:10,-2109.0,274.0,284.0
21:16:10,-2054.0,273.0,284.0
21:16:10,-2054.0,273.0,284.0
21:16:10,-2054.0,273.0,284.0
21:16:10,-2054.0,273.0,284.0
21:16:10,-2031.0,275.0,284.0
21:16:10,-2031.0,275.0,284.0
21:16:10,-2031.0,275.0,284.0
21:16:10,-2031.0,275.0,284.0
21:16:10,-2029.0,275.0,284.0
21:16:10,-2029.0,275.0,284.0
21:16:10,-2029.0,275.0,284.0
21:16:10,-2029.0,275.0,284.0
21:16:10,-1995.0,274.0,283.0
21:16:10,-1995.0,274.0,283.0
21:16:10,-1995.0,274.0,283.0
21:16:10,-1995.0,274.0,283.0
21:16:10,-1970.0,273.0,283.0
21:16:10,-1970.0,273.0,283.0
21:16:10,-1970.0,273.0,283.0
21:16:10,-1970.0,273.0,283.0
21:16:10,-1961.0,273.0,283.0
21:16:10,-1961.0,273.0,283.0
21:16:10,-1961.0,273.0,283.0
21:16:10,-1961.0,273.0,283.0
21:16:10,-1926.0,274.0,283.0
21:16:10,-1926.0,274.0,283.0
21:16:10,-1926.0,274.0,283.0
21:16:10,-1926.0,274.0,283.0
21:16:10,-1902.0,273.0,284.0
21:16:10,-1902.0,273.0,284.0
21:16:10,-1902.0,273.0,284.0
21:16:10,-1902.0,273.0,284.0
21:16:10,-1879.0,274.0,283.0
21:16:10,-1879.0,274.0,283.0
21:16:10,-1879.0,274.0,283.0
21:16:10,-1879.0,274.0,283.0
21:16:10,-1911.0,274.0,283.0
21:16:10,-1911.0,274.0,283.0
21:16:10,-1911.0,274.0,283.0
21:16:10,-1911.0,274.0,283.0
21:16:10,-1971.0,274.0,283.0
21:16:10,-1971.0,274.0,283.0
21:16:10,-1971.0,274.0,283.0
21:16:10,-1971.0,274.0,283.0
21:16:10,-1937.0,274.0,284.0
21:16:10,-1937.0,274.0,284.0
21:16:10,-1937.0,274.0,284.0
21:16:10,-1937.0,274.0,284.0
21:16:10,-1963.0,275.0,284.0
21:16:10,-1963.0,275.0,284.0
21:16:10,-1963.0,275.0,284.0
21:16:10,-1963.0,275.0,284.0
21:16:10,-1957.0,275.0,283.0
21:16:10,-1957.0,275.0,283.0
21:16:10,-1957.0,275.0,283.0
21:16:10,-1957.0,275.0,283.0
21:16:10,-1919.0,274.0,283.0
21:16:10,-1919.0,274.0,283.0
21:16:10,-1919.0,274.0,283.0
21:16:10,-1919.0,274.0,283.0
21:16:10,-1936.0,275.0,283.0
21:16:10,-1936.0,275.0,283.0
21:16:10,-1936.0,275.0,283.0
21:16:10,-1936.0,275.0,283.0
21:16:10,-1916.0,273.0,283.0
21:16:10,-1916.0,273.0,283.0
21:16:10,-1916.0,273.0,283.0
21:16:10,-1916.0,273.0,283.0
21:16:10,-1924.0,274.0,283.0
21:16:10,-1924.0,274.0,283.0
21:16:11,-1924.0,274.0,283.0
21:16:11,-1924.0,274.0,283.0
21:16:11,-1887.0,274.0,284.0
21:16:11,-1887.0,274.0,284.0
21:16:11,-1887.0,274.0,284.0
21:16:11,-1887.0,274.0,284.0
21:16:11,-1927.0,274.0,283.0
21:16:11,-1927.0,274.0,283.0
21:16:11,-1927.0,274.0,283.0
21:16:11,-1927.0,274.0,283.0
21:16:11,-1896.0,272.0,284.0
21:16:11,-1896.0,272.0,284.0
21:16:11,-1896.0,272.0,284.0
21:16:11,-1896.0,272.0,284.0
21:16:11,-1899.0,273.0,285.0
21:16:11,-1899.0,273.0,285.0
21:16:11,-1899.0,273.0,285.0
21:16:11,-1899.0,273.0,285.0
21:16:11,-1884.0,274.0,285.0
21:16:11,-1884.0,274.0,285.0
21:16:11,-1884.0,274.0,285.0
21:16:11,-1884.0,274.0,285.0
21:16:11,-1861.0,275.0,284.0
21:16:11,-1861.0,275.0,284.0
21:16:11,-1861.0,275.0,284.0
21:16:11,-1861.0,275.0,284.0
21:16:11,-1844.0,274.0,284.0
21:16:11,-1844.0,274.0,284.0
21:16:11,-1844.0,274.0,284.0
21:16:11,-1844.0,274.0,284.0
21:16:11,-1851.0,275.0,283.0
21:16:11,-1851.0,275.0,283.0
21:16:11,-1851.0,275.0,283.0
21:16:11,-1851.0,275.0,283.0
21:16:11,-1826.0,274.0,285.0
21:16:11,-1826.0,274.0,285.0
21:16:11,-1826.0,274.0,285.0
21:16:11,-1826.0,274.0,285.0
21:16:11,-1876.0,274.0,283.0
21:16:11,-1876.0,274.0,283.0
21:16:11,-1876.0,274.0,283.0
21:16:11,-1876.0,274.0,283.0
21:16:11,-1881.0,275.0,283.0
21:16:11,-1881.0,275.0,283.0
21:16:11,-1881.0,275.0,283.0
21:16:11,-1881.0,275.0,283.0
21:16:11,-1967.0,275.0,284.0
21:16:11,-1967.0,275.0,284.0
21:16:11,-1967.0,275.0,284.0
21:16:11,-1967.0,275.0,284.0
21:16:11,-1327.0,274.0,284.0
21:16:11,-1327.0,274.0,284.0
21:16:11,-1327.0,274.0,284.0
21:16:11,-1327.0,274.0,284.0
21:16:11,-1937.0,273.0,285.0
21:16:11,-1937.0,273.0,285.0
21:16:11,-1937.0,273.0,285.0
21:16:11,-1937.0,273.0,285.0
21:16:11,-1884.0,274.0,284.0
21:16:11,-1884.0,274.0,284.0
21:16:11,-1884.0,274.0,284.0
21:16:11,-1884.0,274.0,284.0
21:16:11,-1884.0,274.0,283.0
21:16:11,-1884.0,274.0,283.0
21:16:11,-1884.0,274.0,283.0
21:16:11,-1884.0,274.0,283.0
21:16:11,-1869.0,274.0,282.0
21:16:11,-1869.0,274.0,282.0
21:16:11,-1869.0,274.0,282.0
21:16:11,-1869.0,274.0,282.0
21:16:11,-1894.0,273.0,284.0
21:16:11,-1894.0,273.0,284.0
21:16:11,-1894.0,273.0,284.0
21:16:11,-1894.0,273.0,284.0
21:16:11,-1875.0,274.0,282.0
21:16:11,-1875.0,274.0,282.0
21:16:11,-1875.0,274.0,282.0
21:16:11,-1875.0,274.0,282.0
21:16:11,-1814.0,275.0,283.0
21:16:11,-1814.0,275.0,283.0
21:16:11,-1814.0,275.0,283.0
21:16:11,-1814.0,275.0,283.0
21:16:11,-1854.0,274.0,283.0
21:16:11,-1854.0,274.0,283.0
21:16:11,-1854.0,274.0,283.0
21:16:11,-1854.0,274.0,283.0
21:16:11,-1808.0,274.0,282.0
21:16:11,-1808.0,274.0,282.0
21:16:11,-1808.0,274.0,282.0
21:16:11,-1808.0,274.0,282.0
21:16:11,-1839.0,274.0,283.0
21:16:11,-1839.0,274.0,283.0
21:16:11,-1839.0,274.0,283.0
21:16:11,-1839.0,274.0,283.0
21:16:11,-1838.0,275.0,283.0
21:16:11,-1838.0,275.0,283.0
21:16:11,-1838.0,275.0,283.0
21:16:11,-1838.0,275.0,283.0
21:16:11,-1876.0,274.0,283.0
21:16:11,-1876.0,274.0,283.0
21:16:11,-1876.0,274.0,283.0
21:16:11,-1876.0,274.0,283.0
21:16:11,-1915.0,274.0,284.0
21:16:11,-1915.0,274.0,284.0
21:16:11,-1915.0,274.0,284.0
21:16:11,-1915.0,274.0,284.0
21:16:11,-1909.0,274.0,284.0
21:16:11,-1909.0,274.0,284.0
21:16:11,-1909.0,274.0,284.0
21:16:11,-1909.0,274.0,284.0
21:16:11,-1930.0,273.0,284.0
21:16:11,-1930.0,273.0,284.0
21:16:11,-1930.0,273.0,284.0
21:16:11,-1930.0,273.0,284.0
21:16:11,-1887.0,274.0,284.0
21:16:11,-1887.0,274.0,284.0
21:16:11,-1887.0,274.0,284.0
21:16:11,-1887.0,274.0,284.0
21:16:11,-1889.0,274.0,283.0
21:16:11,-1889.0,274.0,283.0
21:16:11,-1889.0,274.0,283.0
21:16:11,-1889.0,274.0,283.0
21:16:11,-1861.0,274.0,284.0
21:16:11,-1861.0,274.0,284.0
21:16:11,-1861.0,274.0,284.0
21:16:11,-1861.0,274.0,284.0
21:16:11,-1842.0,274.0,282.0
21:16:11,-1842.0,274.0,282.0
21:16:11,-1842.0,274.0,282.0
21:16:11,-1842.0,274.0,282.0
21:16:11,-1820.0,275.0,282.0
21:16:11,-1820.0,275.0,282.0
21:16:11,-1820.0,275.0,282.0
21:16:11,-1820.0,275.0,282.0
21:16:11,-1839.0,273.0,283.0
21:16:11,-1839.0,273.0,283.0
21:16:11,-1839.0,273.0,283.0
21:16:11,-1839.0,273.0,283.0
21:16:11,-1792.0,274.0,282.0
21:16:11,-1792.0,274.0,282.0
21:16:11,-1792.0,274.0,282.0
21:16:11,-1792.0,274.0,282.0
21:16:11,-1755.0,273.0,284.0
21:16:11,-1755.0,273.0,284.0
21:16:11,-1755.0,273.0,284.0
21:16:11,-1755.0,273.0,284.0
21:16:11,-1752.0,275.0,283.0
21:16:11,-1752.0,275.0,283.0
21:16:11,-1752.0,275.0,283.0
21:16:11,-1752.0,275.0,283.0
21:16:11,-1718.0,273.0,282.0
21:16:11,-1718.0,273.0,282.0
21:16:11,-1718.0,273.0,282.0
21:16:11,-1718.0,273.0,282.0
21:16:11,-1692.0,273.0,282.0
21:16:11,-1692.0,273.0,282.0
21:16:11,-1692.0,273.0,282.0
21:16:11,-1692.0,273.0,282.0
21:16:11,-1623.0,274.0,284.0
21:16:11,-1623.0,274.0,284.0
21:16:11,-1623.0,274.0,284.0
21:16:11,-1623.0,274.0,284.0
21:16:11,-1587.0,273.0,282.0
21:16:11,-1587.0,273.0,282.0
21:16:11,-1587.0,273.0,282.0
21:16:11,-1587.0,273.0,282.0
21:16:11,-1557.0,274.0,282.0
21:16:11,-1557.0,274.0,282.0
21:16:11,-1557.0,274.0,282.0
21:16:11,-1557.0,274.0,282.0
21:16:11,-1549.0,273.0,282.0
21:16:11,-1549.0,273.0,282.0
21:16:11,-1549.0,273.0,282.0
21:16:11,-1549.0,273.0,282.0
21:16:11,-1546.0,273.0,281.0
21:16:11,-1546.0,273.0,281.0
21:16:11,-1546.0,273.0,281.0
21:16:11,-1546.0,273.0,281.0
21:16:11,-1344.0,273.0,281.0
21:16:11,-1344.0,273.0,281.0
21:16:11,-1344.0,273.0,281.0
21:16:11,-1344.0,273.0,281.0
21:16:11,-968.0,272.0,282.0
21:16:11,-968.0,272.0,282.0
21:16:11,-968.0,272.0,282.0
21:16:11,-968.0,272.0,282.0
21:16:11,-1466.0,273.0,282.0
21:16:11,-1466.0,273.0,282.0
21:16:11,-1466.0,273.0,282.0
21:16:11,-1466.0,273.0,282.0
21:16:11,-1350.0,273.0,281.0
21:16:11,-1350.0,273.0,281.0
21:16:11,-1350.0,273.0,281.0
21:16:11,-1350.0,273.0,281.0
21:16:11,-1292.0,271.0,283.0
21:16:11,-1292.0,271.0,283.0
21:16:11,-1292.0,271.0,283.0
21:16:11,-1292.0,271.0,283.0
21:16:11,-1278.0,273.0,282.0
21:16:11,-1278.0,273.0,282.0
21:16:12,-1278.0,273.0,282.0
21:16:12,-1278.0,273.0,282.0
21:16:12,-1251.0,272.0,281.0
21:16:12,-1251.0,272.0,281.0
21:16:12,-1251.0,272.0,281.0
21:16:12,-1251.0,272.0,281.0
21:16:12,-1186.0,272.0,281.0
21:16:12,-1186.0,272.0,281.0
21:16:12,-1186.0,272.0,281.0
21:16:12,-1186.0,272.0,281.0
21:16:12,-1132.0,272.0,280.0
21:16:12,-1132.0,272.0,280.0
21:16:12,-1132.0,272.0,280.0
21:16:12,-1132.0,272.0,280.0
21:16:12,-1072.0,272.0,282.0
21:16:12,-1072.0,272.0,282.0
21:16:12,-1072.0,272.0,282.0
21:16:12,-1072.0,272.0,282.0
21:16:12,-1040.0,272.0,281.0
21:16:12,-1040.0,272.0,281.0
21:16:12,-1040.0,272.0,281.0
21:16:12,-1040.0,272.0,281.0
21:16:12,-1036.0,272.0,282.0
21:16:12,-1036.0,272.0,282.0
21:16:12,-1036.0,272.0,282.0
21:16:12,-1036.0,272.0,282.0
21:16:12,-1051.0,273.0,282.0
21:16:12,-1051.0,273.0,282.0
21:16:12,-1051.0,273.0,282.0
21:16:12,-1051.0,273.0,282.0
21:16:12,-1056.0,272.0,282.0
21:16:12,-1056.0,272.0,282.0
21:16:12,-1056.0,272.0,282.0
21:16:12,-1056.0,272.0,282.0
21:16:12,-1074.0,272.0,282.0
21:16:12,-1074.0,272.0,282.0
21:16:12,-1074.0,272.0,282.0
21:16:12,-1074.0,272.0,282.0
21:16:12,-1072.0,272.0,283.0
21:16:12,-1072.0,272.0,283.0
21:16:12,-1072.0,272.0,283.0
21:16:12,-1072.0,272.0,283.0
21:16:12,-1039.0,272.0,282.0
21:16:12,-1039.0,272.0,282.0
21:16:12,-1039.0,272.0,282.0
21:16:12,-1039.0,272.0,282.0
21:16:12,-1061.0,272.0,283.0
21:16:12,-1061.0,272.0,283.0
21:16:12,-1061.0,272.0,283.0
21:16:12,-1061.0,272.0,283.0
21:16:12,-1050.0,272.0,282.0
21:16:12,-1050.0,272.0,282.0
21:16:12,-1050.0,272.0,282.0
21:16:12,-1050.0,272.0,282.0
21:16:12,-1054.0,271.0,283.0
21:16:12,-1054.0,271.0,283.0
21:16:12,-1054.0,271.0,283.0
21:16:12,-1054.0,271.0,283.0
21:16:12,-1067.0,272.0,283.0
21:16:12,-1067.0,272.0,283.0
21:16:12,-1067.0,272.0,283.0
21:16:12,-1067.0,272.0,283.0
21:16:12,-1063.0,272.0,282.0
21:16:12,-1063.0,272.0,282.0
21:16:12,-1063.0,272.0,282.0
21:16:12,-1063.0,272.0,282.0
21:16:12,-1057.0,274.0,282.0
21:16:12,-1057.0,274.0,282.0
21:16:12,-1057.0,274.0,282.0
21:16:12,-1057.0,274.0,282.0
21:16:12,-1056.0,272.0,283.0
21:16:12,-1056.0,272.0,283.0
21:16:12,-1056.0,272.0,283.0
21:16:12,-1056.0,272.0,283.0
21:16:12,-1034.0,273.0,281.0
21:16:12,-1034.0,273.0,281.0
21:16:12,-1034.0,273.0,281.0
21:16:12,-1034.0,273.0,281.0
21:16:12,-1022.0,273.0,282.0
21:16:12,-1022.0,273.0,282.0
21:16:12,-1022.0,273.0,282.0
21:16:12,-1022.0,273.0,282.0
21:16:12,-1021.0,272.0,283.0
21:16:12,-1021.0,272.0,283.0
21:16:12,-1021.0,272.0,283.0
21:16:12,-1021.0,272.0,283.0
21:16:12,-1022.0,272.0,282.0
21:16:12,-1022.0,272.0,282.0
21:16:12,-1022.0,272.0,282.0
21:16:12,-1022.0,272.0,282.0
21:16:12,-1086.0,272.0,281.0
21:16:12,-1086.0,272.0,281.0
21:16:12,-1086.0,272.0,281.0
21:16:12,-1086.0,272.0,281.0
21:16:12,-1072.0,272.0,283.0
21:16:12,-1072.0,272.0,283.0
21:16:12,-1072.0,272.0,283.0
21:16:12,-1072.0,272.0,283.0
21:16:12,-1142.0,272.0,283.0
21:16:12,-1142.0,272.0,283.0
21:16:12,-1142.0,272.0,283.0
21:16:12,-1142.0,272.0,283.0
21:16:12,-529.0,273.0,282.0
21:16:12,-529.0,273.0,282.0
21:16:12,-529.0,273.0,282.0
21:16:12,-529.0,273.0,282.0
21:16:12,-1139.0,272.0,283.0
21:16:12,-1139.0,272.0,283.0
21:16:12,-1139.0,272.0,283.0
21:16:12,-1139.0,272.0,283.0
21:16:12,-1132.0,273.0,281.0
21:16:12,-1132.0,273.0,281.0
21:16:12,-1132.0,273.0,281.0
21:16:12,-1132.0,273.0,281.0
21:16:12,-1111.0,273.0,282.0
21:16:12,-1111.0,273.0,282.0
21:16:12,-1111.0,273.0,282.0
21:16:12,-1111.0,273.0,282.0
21:16:12,-1119.0,272.0,283.0
21:16:12,-1119.0,272.0,283.0
21:16:12,-1119.0,272.0,283.0
21:16:12,-1119.0,272.0,283.0
21:16:12,-1102.0,271.0,283.0
21:16:12,-1102.0,271.0,283.0
21:16:12,-1102.0,271.0,283.0
21:16:12,-1102.0,271.0,283.0
21:16:12,-1119.0,273.0,283.0
21:16:12,-1119.0,273.0,283.0
21:16:12,-1119.0,273.0,283.0
21:16:12,-1119.0,273.0,283.0
21:16:12,-1114.0,273.0,284.0
21:16:12,-1114.0,273.0,284.0
21:16:12,-1114.0,273.0,284.0
21:16:12,-1114.0,273.0,284.0
21:16:12,-1094.0,274.0,283.0
21:16:12,-1094.0,274.0,283.0
21:16:12,-1094.0,274.0,283.0
21:16:12,-1094.0,274.0,283.0
21:16:12,-1098.0,273.0,283.0
21:16:12,-1098.0,273.0,283.0
21:16:12,-1098.0,273.0,283.0
21:16:12,-1098.0,273.0,283.0
21:16:12,-1102.0,274.0,283.0
21:16:12,-1102.0,274.0,283.0
21:16:12,-1102.0,274.0,283.0
21:16:12,-1102.0,274.0,283.0
21:16:12,-1151.0,273.0,283.0
21:16:12,-1151.0,273.0,283.0
21:16:12,-1151.0,273.0,283.0
21:16:12,-1151.0,273.0,283.0
21:16:12,-1163.0,273.0,284.0
21:16:12,-1163.0,273.0,284.0
21:16:12,-1163.0,273.0,284.0
21:16:12,-1163.0,273.0,284.0
21:16:12,-1227.0,272.0,282.0
21:16:12,-1227.0,272.0,282.0
21:16:12,-1227.0,272.0,282.0
21:16:12,-1227.0,272.0,282.0
21:16:12,-1262.0,273.0,283.0
21:16:12,-1262.0,273.0,283.0
21:16:12,-1262.0,273.0,283.0
21:16:12,-1262.0,273.0,283.0
21:16:12,-1295.0,272.0,283.0
21:16:12,-1295.0,272.0,283.0
21:16:12,-1295.0,272.0,283.0
21:16:12,-1295.0,272.0,283.0
21:16:12,-1279.0,273.0,282.0
21:16:12,-1279.0,273.0,282.0
21:16:12,-1279.0,273.0,282.0
21:16:12,-1279.0,273.0,282.0
21:16:12,-1284.0,272.0,281.0
21:16:12,-1284.0,272.0,281.0
21:16:12,-1284.0,272.0,281.0
21:16:12,-1284.0,272.0,281.0
21:16:12,-1326.0,272.0,282.0
21:16:12,-1326.0,272.0,282.0
21:16:12,-1326.0,272.0,282.0
21:16:12,-1326.0,272.0,282.0
21:16:12,-1367.0,273.0,282.0
21:16:12,-1367.0,273.0,282.0
21:16:12,-1367.0,273.0,282.0
21:16:12,-1367.0,273.0,282.0
21:16:12,-1345.0,273.0,283.0
21:16:12,-1345.0,273.0,283.0
21:16:12,-1345.0,273.0,283.0
21:16:12,-1345.0,273.0,283.0
21:16:12,-1348.0,272.0,284.0
21:16:12,-1348.0,272.0,284.0
21:16:12,-1348.0,272.0,284.0
21:16:12,-1348.0,272.0,284.0
21:16:12,-1369.0,272.0,283.0
21:16:12,-1369.0,272.0,283.0
21:16:12,-1369.0,272.0,283.0
21:16:12,-1369.0,272.0,283.0
21:16:12,-1411.0,273.0,283.0
21:16:12,-1411.0,273.0,283.0
21:16:12,-1411.0,273.0,283.0
21:16:12,-1411.0,273.0,283.0
21:16:12,-1422.0,272.0,284.0
21:16:12,-1422.0,272.0,284.0
21:16:12,-1422.0,272.0,284.0
21:16:13,-1422.0,272.0,284.0
21:16:13,-1398.0,273.0,283.0
21:16:13,-1398.0,273.0,283.0
21:16:13,-1398.0,273.0,283.0
21:16:13,-1398.0,273.0,283.0
21:16:13,-1388.0,274.0,284.0
21:16:13,-1388.0,274.0,284.0
21:16:13,-1388.0,274.0,284.0
21:16:13,-1388.0,274.0,284.0
21:16:13,-1450.0,274.0,285.0
21:16:13,-1450.0,274.0,285.0
21:16:13,-1450.0,274.0,285.0
21:16:13,-1450.0,274.0,285.0
21:16:13,-1469.0,274.0,284.0
21:16:13,-1469.0,274.0,284.0
21:16:13,-1469.0,274.0,284.0
21:16:13,-1469.0,274.0,284.0
21:16:13,-1520.0,274.0,284.0
21:16:13,-1520.0,274.0,284.0
21:16:13,-1520.0,274.0,284.0
21:16:13,-1520.0,274.0,284.0
21:16:13,-1332.0,274.0,283.0
21:16:13,-1332.0,274.0,283.0
21:16:13,-1332.0,274.0,283.0
21:16:13,-1332.0,274.0,283.0
21:16:13,-906.0,274.0,283.0
21:16:13,-906.0,274.0,283.0
21:16:13,-906.0,274.0,283.0
21:16:13,-906.0,274.0,283.0
21:16:13,-1570.0,274.0,284.0
21:16:13,-1570.0,274.0,284.0
21:16:13,-1570.0,274.0,284.0
21:16:13,-1570.0,274.0,284.0
21:16:13,-1491.0,274.0,283.0
21:16:13,-1491.0,274.0,283.0
21:16:13,-1491.0,274.0,283.0
21:16:13,-1491.0,274.0,283.0
21:16:13,-1497.0,274.0,285.0
21:16:13,-1497.0,274.0,285.0
21:16:13,-1497.0,274.0,285.0
21:16:13,-1497.0,274.0,285.0
21:16:13,-1487.0,275.0,285.0
21:16:13,-1487.0,275.0,285.0
21:16:13,-1487.0,275.0,285.0
21:16:13,-1487.0,275.0,285.0
21:16:13,-1513.0,274.0,284.0
21:16:13,-1513.0,274.0,284.0
21:16:13,-1513.0,274.0,284.0
21:16:13,-1513.0,274.0,284.0
21:16:13,-1497.0,274.0,284.0
21:16:13,-1497.0,274.0,284.0
21:16:13,-1497.0,274.0,284.0
21:16:13,-1497.0,274.0,284.0
21:16:13,-1471.0,275.0,284.0
21:16:13,-1471.0,275.0,284.0
21:16:13,-1471.0,275.0,284.0
21:16:13,-1471.0,275.0,284.0
21:16:13,-1480.0,274.0,284.0
21:16:13,-1480.0,274.0,284.0
21:16:13,-1480.0,274.0,284.0
21:16:13,-1480.0,274.0,284.0
21:16:13,-1437.0,274.0,284.0
21:16:13,-1437.0,274.0,284.0
21:16:13,-1437.0,274.0,284.0
21:16:13,-1437.0,274.0,284.0
21:16:13,-1471.0,275.0,285.0
21:16:13,-1471.0,275.0,285.0
21:16:13,-1471.0,275.0,285.0
21:16:13,-1471.0,275.0,285.0
21:16:13,-1478.0,275.0,284.0
21:16:13,-1478.0,275.0,284.0
21:16:13,-1478.0,275.0,284.0
21:16:13,-1478.0,275.0,284.0
21:16:13,-1520.0,276.0,284.0
21:16:13,-1520.0,276.0,284.0
21:16:13,-1520.0,276.0,284.0
21:16:13,-1520.0,276.0,284.0
21:16:13,-1556.0,274.0,285.0
21:16:13,-1556.0,274.0,285.0
21:16:13,-1556.0,274.0,285.0
21:16:13,-1556.0,274.0,285.0
21:16:13,-1567.0,275.0,285.0
21:16:13,-1567.0,275.0,285.0
21:16:13,-1567.0,275.0,285.0
21:16:13,-1567.0,275.0,285.0
21:16:13,-1576.0,275.0,285.0
21:16:13,-1576.0,275.0,285.0
21:16:13,-1576.0,275.0,285.0
21:16:13,-1576.0,275.0,285.0
21:16:13,-1530.0,275.0,286.0
21:16:13,-1530.0,275.0,286.0
21:16:13,-1530.0,275.0,286.0
21:16:13,-1530.0,275.0,286.0
21:16:13,-1531.0,277.0,285.0
21:16:13,-1531.0,277.0,285.0
21:16:13,-1531.0,277.0,285.0
21:16:13,-1531.0,277.0,285.0
21:16:13,-1564.0,275.0,285.0
21:16:13,-1564.0,275.0,285.0
21:16:13,-1564.0,275.0,285.0
21:16:13,-1564.0,275.0,285.0
21:16:13,-1568.0,276.0,285.0
21:16:13,-1568.0,276.0,285.0
21:16:13,-1568.0,276.0,285.0
21:16:13,-1568.0,276.0,285.0
21:16:13,-1598.0,275.0,286.0
21:16:13,-1598.0,275.0,286.0
21:16:13,-1598.0,275.0,286.0
21:16:13,-1598.0,275.0,286.0
21:16:13,-1556.0,274.0,286.0
21:16:13,-1556.0,274.0,286.0
21:16:13,-1556.0,274.0,286.0
21:16:13,-1556.0,274.0,286.0
21:16:13,-1573.0,275.0,286.0
21:16:13,-1573.0,275.0,286.0
21:16:13,-1573.0,275.0,286.0
21:16:13,-1573.0,275.0,286.0
21:16:13,-1576.0,275.0,285.0
21:16:13,-1576.0,275.0,285.0
21:16:13,-1576.0,275.0,285.0
21:16:13,-1576.0,275.0,285.0
21:16:13,-1551.0,274.0,284.0
21:16:13,-1551.0,274.0,284.0
21:16:13,-1551.0,274.0,284.0
21:16:13,-1551.0,274.0,284.0
21:16:13,-1551.0,274.0,284.0
21:16:13,-1551.0,274.0,284.0
21:16:13,-1551.0,274.0,284.0
21:16:13,-1551.0,274.0,284.0
21:16:13,-1552.0,274.0,284.0
21:16:13,-1552.0,274.0,284.0
21:16:13,-1552.0,274.0,284.0
21:16:13,-1552.0,274.0,284.0
21:16:13,-1601.0,274.0,284.0
21:16:13,-1601.0,274.0,284.0
21:16:13,-1601.0,274.0,284.0
21:16:13,-1601.0,274.0,284.0
21:16:13,-1628.0,275.0,285.0
21:16:13,-1628.0,275.0,285.0
21:16:13,-1628.0,275.0,285.0
21:16:13,-1628.0,275.0,285.0
21:16:13,-1613.0,275.0,284.0
21:16:13,-1613.0,275.0,284.0
21:16:13,-1613.0,275.0,284.0
21:16:13,-1613.0,275.0,284.0
21:16:13,-820.0,274.0,285.0
21:16:13,-820.0,274.0,285.0
21:16:13,-820.0,274.0,285.0
21:16:13,-820.0,274.0,285.0
21:16:13,-1621.0,274.0,283.0
21:16:13,-1621.0,274.0,283.0
21:16:13,-1621.0,274.0,283.0
21:16:13,-1621.0,274.0,283.0
21:16:13,-1563.0,274.0,285.0
21:16:13,-1563.0,274.0,285.0
21:16:13,-1563.0,274.0,285.0
21:16:13,-1563.0,274.0,285.0
21:16:13,-1568.0,275.0,286.0
21:16:13,-1568.0,275.0,286.0
21:16:13,-1568.0,275.0,286.0
21:16:13,-1568.0,275.0,286.0
21:16:13,-1599.0,274.0,286.0
21:16:13,-1599.0,274.0,286.0
21:16:13,-1599.0,274.0,286.0
21:16:13,-1599.0,274.0,286.0
21:16:13,-1564.0,274.0,285.0
21:16:13,-1564.0,274.0,285.0
21:16:13,-1564.0,274.0,285.0
21:16:13,-1564.0,274.0,285.0
21:16:13,-1534.0,274.0,286.0
21:16:13,-1534.0,274.0,286.0
21:16:13,-1534.0,274.0,286.0
21:16:13,-1534.0,274.0,286.0
21:16:13,-1505.0,274.0,285.0
21:16:13,-1505.0,274.0,285.0
21:16:13,-1505.0,274.0,285.0
21:16:13,-1505.0,274.0,285.0
21:16:13,-1492.0,274.0,285.0
21:16:13,-1492.0,274.0,285.0
21:16:13,-1492.0,274.0,285.0
21:16:13,-1492.0,274.0,285.0
21:16:13,-1482.0,274.0,285.0
21:16:13,-1482.0,274.0,285.0
21:16:13,-1482.0,274.0,285.0
21:16:13,-1482.0,274.0,285.0
21:16:13,-1520.0,276.0,285.0
21:16:13,-1520.0,276.0,285.0
21:16:13,-1520.0,276.0,285.0
21:16:13,-1520.0,276.0,285.0
21:16:13,-1507.0,275.0,285.0
21:16:13,-1507.0,275.0,285.0
21:16:13,-1507.0,275.0,285.0
21:16:13,-1507.0,275.0,285.0
21:16:13,-1542.0,274.0,285.0
21:16:13,-1542.0,274.0,285.0
