Wed Apr 16 15:45:02 IST 2025
TimeStamp,ECG,PPG
15:45:02,-918.0,369.0,326.0
15:45:02,-929.0,370.0,327.0
15:45:02,-929.0,370.0,327.0
15:45:02,-929.0,370.0,327.0
15:45:02,-929.0,370.0,327.0
15:45:02,-813.0,369.0,325.0
15:45:02,-813.0,369.0,325.0
15:45:02,-813.0,369.0,325.0
15:45:02,-813.0,369.0,325.0
15:45:02,-786.0,369.0,325.0
15:45:02,-786.0,369.0,325.0
15:45:02,-786.0,369.0,325.0
15:45:02,-786.0,369.0,325.0
15:45:02,-825.0,369.0,327.0
15:45:02,-825.0,369.0,327.0
15:45:02,-825.0,369.0,327.0
15:45:02,-825.0,369.0,327.0
15:45:03,-892.0,369.0,327.0
15:45:03,-892.0,369.0,327.0
15:45:03,-892.0,369.0,327.0
15:45:03,-892.0,369.0,327.0
15:45:03,-963.0,369.0,326.0
15:45:03,-963.0,369.0,326.0
15:45:03,-963.0,369.0,326.0
15:45:03,-963.0,369.0,326.0
15:45:03,-1046.0,368.0,327.0
15:45:03,-1046.0,368.0,327.0
15:45:03,-1046.0,368.0,327.0
15:45:03,-1046.0,368.0,327.0
15:45:03,-1079.0,367.0,326.0
15:45:03,-1079.0,367.0,326.0
15:45:03,-1079.0,367.0,326.0
15:45:03,-1079.0,367.0,326.0
15:45:03,-1049.0,368.0,327.0
15:45:03,-1049.0,368.0,327.0
15:45:03,-1049.0,368.0,327.0
15:45:03,-1049.0,368.0,327.0
15:45:03,-1098.0,368.0,327.0
15:45:03,-1098.0,368.0,327.0
15:45:03,-1098.0,368.0,327.0
15:45:03,-1098.0,368.0,327.0
15:45:03,-1043.0,368.0,327.0
15:45:03,-1043.0,368.0,327.0
15:45:03,-1043.0,368.0,327.0
15:45:03,-1043.0,368.0,327.0
15:45:03,-1073.0,368.0,326.0
15:45:03,-1073.0,368.0,326.0
15:45:03,-1073.0,368.0,326.0
15:45:03,-1073.0,368.0,326.0
15:45:03,-1149.0,367.0,327.0
15:45:03,-1149.0,367.0,327.0
15:45:03,-1149.0,367.0,327.0
15:45:03,-1149.0,367.0,327.0
15:45:03,-1006.0,369.0,326.0
15:45:03,-1006.0,369.0,326.0
15:45:03,-1006.0,369.0,326.0
15:45:03,-1006.0,369.0,326.0
15:45:03,-1096.0,367.0,326.0
15:45:03,-1096.0,367.0,326.0
15:45:03,-1096.0,367.0,326.0
15:45:03,-1096.0,367.0,326.0
15:45:03,-1094.0,368.0,326.0
15:45:03,-1094.0,368.0,326.0
15:45:03,-1094.0,368.0,326.0
15:45:03,-1094.0,368.0,326.0
15:45:03,-1116.0,368.0,324.0
15:45:03,-1116.0,368.0,324.0
15:45:03,-1116.0,368.0,324.0
15:45:03,-1116.0,368.0,324.0
15:45:03,-1157.0,367.0,326.0
15:45:03,-1157.0,367.0,326.0
15:45:03,-1157.0,367.0,326.0
15:45:03,-1157.0,367.0,326.0
15:45:03,-1117.0,368.0,327.0
15:45:03,-1117.0,368.0,327.0
15:45:03,-1117.0,368.0,327.0
15:45:03,-1117.0,368.0,327.0
15:45:03,-1122.0,369.0,325.0
15:45:03,-1122.0,369.0,325.0
15:45:03,-1122.0,369.0,325.0
15:45:03,-1122.0,369.0,325.0
15:45:03,-1051.0,368.0,327.0
15:45:03,-1051.0,368.0,327.0
15:45:03,-1051.0,368.0,327.0
15:45:03,-1051.0,368.0,327.0
15:45:03,-1163.0,367.0,327.0
15:45:03,-1163.0,367.0,327.0
15:45:03,-1163.0,367.0,327.0
15:45:03,-1163.0,367.0,327.0
15:45:03,-1183.0,369.0,326.0
15:45:03,-1183.0,369.0,326.0
15:45:03,-1183.0,369.0,326.0
15:45:03,-1183.0,369.0,326.0
15:45:03,-1147.0,370.0,326.0
15:45:03,-1147.0,370.0,326.0
15:45:03,-1147.0,370.0,326.0
15:45:03,-1147.0,370.0,326.0
15:45:03,-1183.0,368.0,326.0
15:45:03,-1183.0,368.0,326.0
15:45:03,-1183.0,368.0,326.0
15:45:03,-1183.0,368.0,326.0
15:45:03,-720.0,369.0,328.0
15:45:03,-720.0,369.0,328.0
15:45:03,-720.0,369.0,328.0
15:45:03,-720.0,369.0,328.0
15:45:03,-1523.0,369.0,328.0
15:45:03,-1523.0,369.0,328.0
15:45:03,-1523.0,369.0,328.0
15:45:03,-1523.0,369.0,328.0
15:45:03,-1364.0,369.0,327.0
15:45:03,-1364.0,369.0,327.0
15:45:03,-1364.0,369.0,327.0
15:45:03,-1364.0,369.0,327.0
15:45:03,-1141.0,369.0,326.0
15:45:03,-1141.0,369.0,326.0
15:45:03,-1141.0,369.0,326.0
15:45:03,-1141.0,369.0,326.0
15:45:03,-1131.0,368.0,327.0
15:45:03,-1131.0,368.0,327.0
15:45:03,-1131.0,368.0,327.0
15:45:03,-1131.0,368.0,327.0
15:45:03,-1141.0,368.0,327.0
15:45:03,-1141.0,368.0,327.0
15:45:03,-1141.0,368.0,327.0
15:45:03,-1141.0,368.0,327.0
15:45:03,-1145.0,369.0,326.0
15:45:03,-1145.0,369.0,326.0
15:45:03,-1145.0,369.0,326.0
15:45:03,-1145.0,369.0,326.0
15:45:03,-1139.0,369.0,325.0
15:45:03,-1139.0,369.0,325.0
15:45:03,-1139.0,369.0,325.0
15:45:03,-1139.0,369.0,325.0
15:45:03,-1042.0,369.0,326.0
15:45:03,-1042.0,369.0,326.0
15:45:03,-1042.0,369.0,326.0
15:45:03,-1042.0,369.0,326.0
15:45:03,-1008.0,369.0,326.0
15:45:03,-1008.0,369.0,326.0
15:45:03,-1008.0,369.0,326.0
15:45:03,-1008.0,369.0,326.0
15:45:03,-1048.0,368.0,327.0
15:45:03,-1048.0,368.0,327.0
15:45:03,-1048.0,368.0,327.0
15:45:03,-1048.0,368.0,327.0
15:45:03,-1068.0,368.0,326.0
15:45:03,-1068.0,368.0,326.0
15:45:03,-1068.0,368.0,326.0
15:45:03,-1068.0,368.0,326.0
15:45:03,-1194.0,369.0,326.0
15:45:03,-1194.0,369.0,326.0
15:45:03,-1194.0,369.0,326.0
15:45:03,-1194.0,369.0,326.0
15:45:03,-1323.0,369.0,327.0
15:45:03,-1323.0,369.0,327.0
15:45:03,-1323.0,369.0,327.0
15:45:03,-1323.0,369.0,327.0
15:45:03,-1275.0,368.0,326.0
15:45:03,-1275.0,368.0,326.0
15:45:03,-1275.0,368.0,326.0
15:45:03,-1275.0,368.0,326.0
15:45:03,-1232.0,368.0,326.0
15:45:03,-1232.0,368.0,326.0
15:45:03,-1232.0,368.0,326.0
15:45:03,-1232.0,368.0,326.0
15:45:03,-1311.0,369.0,326.0
15:45:03,-1311.0,369.0,326.0
15:45:03,-1311.0,369.0,326.0
15:45:03,-1311.0,369.0,326.0
15:45:03,-1331.0,369.0,326.0
15:45:03,-1331.0,369.0,326.0
15:45:03,-1331.0,369.0,326.0
15:45:03,-1331.0,369.0,326.0
15:45:03,-1249.0,367.0,328.0
15:45:03,-1249.0,367.0,328.0
15:45:03,-1249.0,367.0,328.0
15:45:03,-1249.0,367.0,328.0
15:45:03,-1193.0,367.0,327.0
15:45:03,-1193.0,367.0,327.0
15:45:03,-1193.0,367.0,327.0
15:45:03,-1193.0,367.0,327.0
15:45:03,-1224.0,369.0,327.0
15:45:03,-1224.0,369.0,327.0
15:45:03,-1224.0,369.0,327.0
15:45:03,-1224.0,369.0,327.0
15:45:03,-1277.0,367.0,328.0
15:45:03,-1277.0,367.0,328.0
15:45:03,-1277.0,367.0,328.0
15:45:03,-1277.0,367.0,328.0
15:45:03,-1218.0,369.0,327.0
15:45:03,-1218.0,369.0,327.0
15:45:03,-1218.0,369.0,327.0
15:45:03,-1218.0,369.0,327.0
15:45:03,-1150.0,368.0,327.0
15:45:03,-1150.0,368.0,327.0
15:45:03,-1150.0,368.0,327.0
15:45:03,-1150.0,368.0,327.0
15:45:03,-1220.0,368.0,327.0
15:45:03,-1220.0,368.0,327.0
15:45:03,-1220.0,368.0,327.0
15:45:03,-1220.0,368.0,327.0
15:45:03,-1230.0,369.0,327.0
15:45:03,-1230.0,369.0,327.0
15:45:03,-1230.0,369.0,327.0
15:45:03,-1230.0,369.0,327.0
15:45:03,-1173.0,368.0,326.0
15:45:03,-1173.0,368.0,326.0
15:45:03,-1173.0,368.0,326.0
15:45:03,-1173.0,368.0,326.0
15:45:03,-1214.0,370.0,327.0
15:45:03,-1214.0,370.0,327.0
15:45:03,-1214.0,370.0,327.0
15:45:03,-1214.0,370.0,327.0
15:45:03,-1206.0,369.0,326.0
15:45:03,-1206.0,369.0,326.0
15:45:03,-1206.0,369.0,326.0
15:45:03,-1206.0,369.0,326.0
15:45:03,-1178.0,369.0,326.0
15:45:04,-1178.0,369.0,326.0
15:45:04,-1178.0,369.0,326.0
15:45:04,-1178.0,369.0,326.0
15:45:04,-1296.0,367.0,327.0
15:45:04,-1296.0,367.0,327.0
15:45:04,-1296.0,367.0,327.0
15:45:04,-1296.0,367.0,327.0
15:45:04,-955.0,367.0,328.0
15:45:04,-955.0,367.0,328.0
15:45:04,-955.0,367.0,328.0
15:45:04,-955.0,367.0,328.0
15:45:04,-1164.0,368.0,327.0
15:45:04,-1164.0,368.0,327.0
15:45:04,-1164.0,368.0,327.0
15:45:04,-1164.0,368.0,327.0
15:45:04,-1495.0,369.0,327.0
15:45:04,-1495.0,369.0,327.0
15:45:04,-1495.0,369.0,327.0
15:45:04,-1495.0,369.0,327.0
15:45:04,-1227.0,369.0,327.0
15:45:04,-1227.0,369.0,327.0
15:45:04,-1227.0,369.0,327.0
15:45:04,-1227.0,369.0,327.0
15:45:04,-1180.0,368.0,325.0
15:45:04,-1180.0,368.0,325.0
15:45:04,-1180.0,368.0,325.0
15:45:04,-1180.0,368.0,325.0
15:45:04,-1142.0,368.0,328.0
15:45:04,-1142.0,368.0,328.0
15:45:04,-1142.0,368.0,328.0
15:45:04,-1142.0,368.0,328.0
15:45:04,-1118.0,369.0,326.0
15:45:04,-1118.0,369.0,326.0
15:45:04,-1118.0,369.0,326.0
15:45:04,-1118.0,369.0,326.0
15:45:04,-1106.0,367.0,327.0
15:45:04,-1106.0,367.0,327.0
15:45:04,-1106.0,367.0,327.0
15:45:04,-1106.0,367.0,327.0
15:45:04,-1042.0,369.0,327.0
15:45:04,-1042.0,369.0,327.0
15:45:04,-1042.0,369.0,327.0
15:45:04,-1042.0,369.0,327.0
15:45:04,-986.0,369.0,327.0
15:45:04,-986.0,369.0,327.0
15:45:04,-986.0,369.0,327.0
15:45:04,-986.0,369.0,327.0
15:45:04,-982.0,368.0,328.0
15:45:04,-982.0,368.0,328.0
15:45:04,-982.0,368.0,328.0
15:45:04,-982.0,368.0,328.0
15:45:04,-966.0,369.0,327.0
15:45:04,-966.0,369.0,327.0
15:45:04,-966.0,369.0,327.0
15:45:04,-966.0,369.0,327.0
15:45:04,-1133.0,368.0,327.0
15:45:04,-1133.0,368.0,327.0
15:45:04,-1133.0,368.0,327.0
15:45:04,-1133.0,368.0,327.0
15:45:04,-1154.0,368.0,327.0
15:45:04,-1154.0,368.0,327.0
15:45:04,-1154.0,368.0,327.0
15:45:04,-1154.0,368.0,327.0
15:45:04,-1205.0,368.0,327.0
15:45:04,-1205.0,368.0,327.0
15:45:04,-1205.0,368.0,327.0
15:45:04,-1205.0,368.0,327.0
15:45:04,-1154.0,369.0,325.0
15:45:04,-1154.0,369.0,325.0
15:45:04,-1154.0,369.0,325.0
15:45:04,-1154.0,369.0,325.0
15:45:04,-1305.0,367.0,326.0
15:45:04,-1305.0,367.0,326.0
15:45:04,-1305.0,367.0,326.0
15:45:04,-1305.0,367.0,326.0
15:45:04,-1218.0,367.0,325.0
15:45:04,-1218.0,367.0,325.0
15:45:04,-1218.0,367.0,325.0
15:45:04,-1218.0,367.0,325.0
15:45:04,-1229.0,368.0,326.0
15:45:04,-1229.0,368.0,326.0
15:45:04,-1229.0,368.0,326.0
15:45:04,-1229.0,368.0,326.0
15:45:04,-1184.0,368.0,326.0
15:45:04,-1184.0,368.0,326.0
15:45:04,-1184.0,368.0,326.0
15:45:04,-1184.0,368.0,326.0
15:45:04,-1108.0,368.0,326.0
15:45:04,-1108.0,368.0,326.0
15:45:04,-1108.0,368.0,326.0
15:45:04,-1108.0,368.0,326.0
15:45:04,-1100.0,367.0,326.0
15:45:04,-1100.0,367.0,326.0
15:45:04,-1100.0,367.0,326.0
15:45:04,-1100.0,367.0,326.0
15:45:04,-1139.0,368.0,327.0
15:45:04,-1139.0,368.0,327.0
15:45:04,-1139.0,368.0,327.0
15:45:04,-1139.0,368.0,327.0
15:45:04,-1075.0,369.0,327.0
15:45:04,-1075.0,369.0,327.0
15:45:04,-1075.0,369.0,327.0
15:45:04,-1075.0,369.0,327.0
15:45:04,-1117.0,368.0,327.0
15:45:04,-1117.0,368.0,327.0
15:45:04,-1117.0,368.0,327.0
15:45:04,-1117.0,368.0,327.0
15:45:04,-1066.0,369.0,327.0
15:45:04,-1066.0,369.0,327.0
15:45:04,-1066.0,369.0,327.0
15:45:04,-1066.0,369.0,327.0
15:45:04,-1101.0,369.0,327.0
15:45:04,-1101.0,369.0,327.0
15:45:04,-1101.0,369.0,327.0
15:45:04,-1101.0,369.0,327.0
15:45:04,-1013.0,369.0,326.0
15:45:04,-1013.0,369.0,326.0
15:45:04,-1013.0,369.0,326.0
15:45:04,-1013.0,369.0,326.0
15:45:04,-1053.0,368.0,326.0
15:45:04,-1053.0,368.0,326.0
15:45:04,-1053.0,368.0,326.0
15:45:04,-1053.0,368.0,326.0
15:45:04,-1075.0,368.0,327.0
15:45:04,-1075.0,368.0,327.0
15:45:04,-1075.0,368.0,327.0
15:45:04,-1075.0,368.0,327.0
15:45:04,-1048.0,370.0,328.0
15:45:04,-1048.0,370.0,328.0
15:45:04,-1048.0,370.0,328.0
15:45:04,-1048.0,370.0,328.0
15:45:04,-1053.0,369.0,327.0
15:45:04,-1053.0,369.0,327.0
15:45:04,-1053.0,369.0,327.0
15:45:04,-1053.0,369.0,327.0
15:45:04,-770.0,369.0,326.0
15:45:04,-770.0,369.0,326.0
15:45:04,-770.0,369.0,326.0
15:45:04,-770.0,369.0,326.0
15:45:04,-1029.0,371.0,326.0
15:45:04,-1029.0,371.0,326.0
15:45:04,-1029.0,371.0,326.0
15:45:04,-1029.0,371.0,326.0
15:45:04,-1156.0,369.0,326.0
15:45:04,-1156.0,369.0,326.0
15:45:04,-1156.0,369.0,326.0
15:45:04,-1156.0,369.0,326.0
15:45:04,-1039.0,370.0,326.0
15:45:04,-1039.0,370.0,326.0
15:45:04,-1039.0,370.0,326.0
15:45:04,-1039.0,370.0,326.0
15:45:04,-978.0,369.0,326.0
15:45:04,-978.0,369.0,326.0
15:45:04,-978.0,369.0,326.0
15:45:04,-978.0,369.0,326.0
15:45:04,-975.0,369.0,327.0
15:45:04,-975.0,369.0,327.0
15:45:04,-975.0,369.0,327.0
15:45:04,-975.0,369.0,327.0
15:45:04,-907.0,368.0,326.0
15:45:04,-907.0,368.0,326.0
15:45:04,-907.0,368.0,326.0
15:45:04,-907.0,368.0,326.0
15:45:04,-905.0,368.0,326.0
15:45:04,-905.0,368.0,326.0
15:45:04,-905.0,368.0,326.0
15:45:04,-905.0,368.0,326.0
15:45:04,-864.0,368.0,327.0
15:45:04,-864.0,368.0,327.0
15:45:04,-864.0,368.0,327.0
15:45:04,-864.0,368.0,327.0
15:45:04,-780.0,368.0,327.0
15:45:04,-780.0,368.0,327.0
15:45:04,-780.0,368.0,327.0
15:45:04,-780.0,368.0,327.0
15:45:04,-794.0,367.0,328.0
15:45:04,-794.0,367.0,328.0
15:45:04,-794.0,367.0,328.0
15:45:04,-794.0,367.0,328.0
15:45:04,-815.0,368.0,328.0
15:45:04,-815.0,368.0,328.0
15:45:04,-815.0,368.0,328.0
15:45:04,-815.0,368.0,328.0
15:45:04,-870.0,368.0,328.0
15:45:04,-870.0,368.0,328.0
15:45:04,-870.0,368.0,328.0
15:45:04,-870.0,368.0,328.0
15:45:04,-970.0,367.0,326.0
15:45:04,-970.0,367.0,326.0
15:45:04,-970.0,367.0,326.0
15:45:04,-970.0,367.0,326.0
15:45:04,-942.0,367.0,325.0
15:45:04,-942.0,367.0,325.0
15:45:04,-942.0,367.0,325.0
15:45:04,-942.0,367.0,325.0
15:45:04,-971.0,369.0,327.0
15:45:04,-971.0,369.0,327.0
15:45:04,-971.0,369.0,327.0
15:45:04,-971.0,369.0,327.0
15:45:04,-984.0,368.0,326.0
15:45:05,-984.0,368.0,326.0
15:45:05,-984.0,368.0,326.0
15:45:05,-984.0,368.0,326.0
15:45:05,-939.0,367.0,326.0
15:45:05,-939.0,367.0,326.0
15:45:05,-939.0,367.0,326.0
15:45:05,-939.0,367.0,326.0
15:45:05,-876.0,367.0,328.0
15:45:05,-876.0,367.0,328.0
15:45:05,-876.0,367.0,328.0
15:45:05,-876.0,367.0,328.0
15:45:05,-939.0,368.0,328.0
15:45:05,-939.0,368.0,328.0
15:45:05,-939.0,368.0,328.0
15:45:05,-939.0,368.0,328.0
15:45:05,-836.0,368.0,327.0
15:45:05,-836.0,368.0,327.0
15:45:05,-836.0,368.0,327.0
15:45:05,-836.0,368.0,327.0
15:45:05,-866.0,368.0,328.0
15:45:05,-866.0,368.0,328.0
15:45:05,-866.0,368.0,328.0
15:45:05,-866.0,368.0,328.0
15:45:05,-888.0,368.0,328.0
15:45:05,-888.0,368.0,328.0
15:45:05,-888.0,368.0,328.0
15:45:05,-888.0,368.0,328.0
15:45:05,-862.0,369.0,327.0
15:45:05,-862.0,369.0,327.0
15:45:05,-862.0,369.0,327.0
15:45:05,-862.0,369.0,327.0
15:45:05,-809.0,368.0,326.0
15:45:05,-809.0,368.0,326.0
15:45:05,-809.0,368.0,326.0
15:45:05,-809.0,368.0,326.0
15:45:05,-791.0,369.0,328.0
15:45:05,-791.0,369.0,328.0
15:45:05,-791.0,369.0,328.0
15:45:05,-791.0,369.0,328.0
15:45:05,-796.0,369.0,327.0
15:45:05,-796.0,369.0,327.0
15:45:05,-796.0,369.0,327.0
15:45:05,-796.0,369.0,327.0
15:45:05,-682.0,368.0,327.0
15:45:05,-682.0,368.0,327.0
15:45:05,-682.0,368.0,327.0
15:45:05,-682.0,368.0,327.0
15:45:05,-864.0,368.0,328.0
15:45:05,-864.0,368.0,328.0
15:45:05,-864.0,368.0,328.0
15:45:05,-864.0,368.0,328.0
15:45:05,-873.0,369.0,328.0
15:45:05,-873.0,369.0,328.0
15:45:05,-873.0,369.0,328.0
15:45:05,-873.0,369.0,328.0
15:45:05,-819.0,369.0,328.0
15:45:05,-819.0,369.0,328.0
15:45:05,-819.0,369.0,328.0
15:45:05,-819.0,369.0,328.0
15:45:05,-855.0,369.0,326.0
15:45:05,-855.0,369.0,326.0
15:45:05,-855.0,369.0,326.0
15:45:05,-855.0,369.0,326.0
15:45:05,-202.0,368.0,326.0
15:45:05,-202.0,368.0,326.0
15:45:05,-202.0,368.0,326.0
15:45:05,-202.0,368.0,326.0
15:45:05,-1101.0,369.0,327.0
15:45:05,-1101.0,369.0,327.0
15:45:05,-1101.0,369.0,327.0
15:45:05,-1101.0,369.0,327.0
15:45:05,-814.0,370.0,327.0
15:45:05,-814.0,370.0,327.0
15:45:05,-814.0,370.0,327.0
15:45:05,-814.0,370.0,327.0
15:45:05,-809.0,368.0,327.0
15:45:05,-809.0,368.0,327.0
15:45:05,-809.0,368.0,327.0
15:45:05,-809.0,368.0,327.0
15:45:05,-763.0,368.0,327.0
15:45:05,-763.0,368.0,327.0
15:45:05,-763.0,368.0,327.0
15:45:05,-763.0,368.0,327.0
15:45:05,-778.0,369.0,327.0
15:45:05,-778.0,369.0,327.0
15:45:05,-778.0,369.0,327.0
15:45:05,-778.0,369.0,327.0
15:45:05,-675.0,367.0,327.0
15:45:05,-675.0,367.0,327.0
15:45:05,-675.0,367.0,327.0
15:45:05,-675.0,367.0,327.0
15:45:05,-654.0,369.0,327.0
15:45:05,-654.0,369.0,327.0
15:45:05,-654.0,369.0,327.0
15:45:05,-654.0,369.0,327.0
15:45:05,-611.0,369.0,327.0
15:45:05,-611.0,369.0,327.0
15:45:05,-611.0,369.0,327.0
15:45:05,-611.0,369.0,327.0
15:45:05,-608.0,370.0,327.0
15:45:05,-608.0,370.0,327.0
15:45:05,-608.0,370.0,327.0
15:45:05,-608.0,370.0,327.0
15:45:05,-618.0,369.0,327.0
15:45:05,-618.0,369.0,327.0
15:45:05,-618.0,369.0,327.0
15:45:05,-618.0,369.0,327.0
15:45:05,-655.0,369.0,326.0
15:45:05,-655.0,369.0,326.0
15:45:05,-655.0,369.0,326.0
15:45:05,-655.0,369.0,326.0
15:45:05,-767.0,367.0,327.0
15:45:05,-767.0,367.0,327.0
15:45:05,-767.0,367.0,327.0
15:45:05,-767.0,367.0,327.0
15:45:05,-812.0,368.0,328.0
15:45:05,-812.0,368.0,328.0
15:45:05,-812.0,368.0,328.0
15:45:05,-812.0,368.0,328.0
15:45:05,-796.0,368.0,327.0
15:45:05,-796.0,368.0,327.0
15:45:05,-796.0,368.0,327.0
15:45:05,-796.0,368.0,327.0
15:45:05,-818.0,369.0,326.0
15:45:05,-818.0,369.0,326.0
15:45:05,-818.0,369.0,326.0
15:45:05,-818.0,369.0,326.0
15:45:05,-824.0,369.0,326.0
15:45:05,-824.0,369.0,326.0
15:45:05,-824.0,369.0,326.0
15:45:05,-824.0,369.0,326.0
15:45:05,-788.0,369.0,326.0
15:45:05,-788.0,369.0,326.0
15:45:05,-788.0,369.0,326.0
15:45:05,-788.0,369.0,326.0
15:45:05,-771.0,367.0,327.0
15:45:05,-771.0,367.0,327.0
15:45:05,-771.0,367.0,327.0
15:45:05,-771.0,367.0,327.0
15:45:05,-821.0,369.0,327.0
15:45:05,-821.0,369.0,327.0
15:45:05,-821.0,369.0,327.0
15:45:05,-821.0,369.0,327.0
15:45:05,-779.0,369.0,328.0
15:45:05,-779.0,369.0,328.0
15:45:05,-779.0,369.0,328.0
15:45:05,-779.0,369.0,328.0
15:45:05,-751.0,368.0,327.0
15:45:05,-751.0,368.0,327.0
15:45:05,-751.0,368.0,327.0
15:45:05,-751.0,368.0,327.0
15:45:05,-813.0,368.0,327.0
15:45:05,-813.0,368.0,327.0
15:45:05,-813.0,368.0,327.0
15:45:05,-813.0,368.0,327.0
15:45:05,-767.0,367.0,327.0
15:45:05,-767.0,367.0,327.0
15:45:05,-767.0,367.0,327.0
15:45:05,-767.0,367.0,327.0
15:45:05,-757.0,368.0,327.0
15:45:05,-757.0,368.0,327.0
15:45:05,-757.0,368.0,327.0
15:45:05,-757.0,368.0,327.0
15:45:05,-724.0,368.0,326.0
15:45:05,-724.0,368.0,326.0
15:45:05,-724.0,368.0,326.0
15:45:05,-724.0,368.0,326.0
15:45:05,-720.0,369.0,327.0
15:45:05,-720.0,369.0,327.0
15:45:05,-720.0,369.0,327.0
15:45:05,-720.0,369.0,327.0
15:45:05,-726.0,369.0,327.0
15:45:05,-726.0,369.0,327.0
15:45:05,-726.0,369.0,327.0
15:45:05,-726.0,369.0,327.0
15:45:05,-811.0,368.0,328.0
15:45:05,-811.0,368.0,328.0
15:45:05,-811.0,368.0,328.0
15:45:05,-811.0,368.0,328.0
15:45:05,-763.0,368.0,328.0
15:45:05,-763.0,368.0,328.0
15:45:05,-763.0,368.0,328.0
15:45:05,-763.0,368.0,328.0
15:45:05,-853.0,369.0,328.0
15:45:05,-853.0,369.0,328.0
15:45:05,-853.0,369.0,328.0
15:45:05,-853.0,369.0,328.0
15:45:05,-380.0,368.0,326.0
15:45:05,-380.0,368.0,326.0
15:45:05,-380.0,368.0,326.0
15:45:05,-380.0,368.0,326.0
15:45:05,-1012.0,368.0,326.0
15:45:05,-1012.0,368.0,326.0
15:45:05,-1012.0,368.0,326.0
15:45:05,-1012.0,368.0,326.0
15:45:05,-1012.0,368.0,329.0
15:45:05,-1012.0,368.0,329.0
15:45:05,-1012.0,368.0,329.0
15:45:05,-1012.0,368.0,329.0
15:45:05,-773.0,368.0,328.0
15:45:05,-773.0,368.0,328.0
15:45:06,-773.0,368.0,328.0
15:45:06,-773.0,368.0,328.0
15:45:06,-784.0,369.0,326.0
15:45:06,-784.0,369.0,326.0
15:45:06,-784.0,369.0,326.0
15:45:06,-784.0,369.0,326.0
15:45:06,-745.0,369.0,326.0
15:45:06,-745.0,369.0,326.0
15:45:06,-745.0,369.0,326.0
15:45:06,-745.0,369.0,326.0
15:45:06,-763.0,370.0,327.0
15:45:06,-763.0,370.0,327.0
15:45:06,-763.0,370.0,327.0
15:45:06,-763.0,370.0,327.0
15:45:06,-737.0,368.0,326.0
15:45:06,-737.0,368.0,326.0
15:45:06,-737.0,368.0,326.0
15:45:06,-737.0,368.0,326.0
15:45:06,-651.0,369.0,327.0
15:45:06,-651.0,369.0,327.0
15:45:06,-651.0,369.0,327.0
15:45:06,-651.0,369.0,327.0
15:45:06,-625.0,369.0,327.0
15:45:06,-625.0,369.0,327.0
15:45:06,-625.0,369.0,327.0
15:45:06,-625.0,369.0,327.0
15:45:06,-630.0,368.0,327.0
15:45:06,-630.0,368.0,327.0
15:45:06,-630.0,368.0,327.0
15:45:06,-630.0,368.0,327.0
15:45:06,-703.0,369.0,327.0
15:45:06,-703.0,369.0,327.0
15:45:06,-703.0,369.0,327.0
15:45:06,-703.0,369.0,327.0
15:45:06,-790.0,369.0,327.0
15:45:06,-790.0,369.0,327.0
15:45:06,-790.0,369.0,327.0
15:45:06,-790.0,369.0,327.0
15:45:06,-901.0,369.0,325.0
15:45:06,-901.0,369.0,325.0
15:45:06,-901.0,369.0,325.0
15:45:06,-901.0,369.0,325.0
15:45:06,-924.0,370.0,326.0
15:45:06,-924.0,370.0,326.0
15:45:06,-924.0,370.0,326.0
15:45:06,-924.0,370.0,326.0
15:45:06,-934.0,369.0,326.0
15:45:06,-934.0,369.0,326.0
15:45:06,-934.0,369.0,326.0
15:45:06,-934.0,369.0,326.0
15:45:06,-919.0,369.0,326.0
15:45:06,-919.0,369.0,326.0
15:45:06,-919.0,369.0,326.0
15:45:06,-919.0,369.0,326.0
15:45:06,-929.0,369.0,326.0
15:45:06,-929.0,369.0,326.0
15:45:06,-929.0,369.0,326.0
15:45:06,-929.0,369.0,326.0
15:45:06,-897.0,369.0,326.0
15:45:06,-897.0,369.0,326.0
15:45:06,-897.0,369.0,326.0
15:45:06,-897.0,369.0,326.0
15:45:06,-913.0,368.0,327.0
15:45:06,-913.0,368.0,327.0
15:45:06,-913.0,368.0,327.0
15:45:06,-913.0,368.0,327.0
15:45:06,-891.0,368.0,327.0
15:45:06,-891.0,368.0,327.0
15:45:06,-891.0,368.0,327.0
15:45:06,-891.0,368.0,327.0
15:45:06,-916.0,369.0,328.0
15:45:06,-916.0,369.0,328.0
15:45:06,-916.0,369.0,328.0
15:45:06,-916.0,369.0,328.0
15:45:06,-921.0,368.0,327.0
15:45:06,-921.0,368.0,327.0
15:45:06,-921.0,368.0,327.0
15:45:06,-921.0,368.0,327.0
15:45:06,-902.0,369.0,327.0
15:45:06,-902.0,369.0,327.0
15:45:06,-902.0,369.0,327.0
15:45:06,-902.0,369.0,327.0
15:45:06,-853.0,367.0,326.0
15:45:06,-853.0,367.0,326.0
15:45:06,-853.0,367.0,326.0
15:45:06,-853.0,367.0,326.0
15:45:06,-869.0,367.0,328.0
15:45:06,-869.0,367.0,328.0
15:45:06,-869.0,367.0,328.0
15:45:06,-869.0,367.0,328.0
15:45:06,-907.0,369.0,326.0
15:45:06,-907.0,369.0,326.0
15:45:06,-907.0,369.0,326.0
15:45:06,-907.0,369.0,326.0
15:45:06,-958.0,369.0,327.0
15:45:06,-958.0,369.0,327.0
15:45:06,-958.0,369.0,327.0
15:45:06,-958.0,369.0,327.0
15:45:06,-947.0,369.0,326.0
15:45:06,-947.0,369.0,326.0
15:45:06,-947.0,369.0,326.0
15:45:06,-947.0,369.0,326.0
15:45:06,-1012.0,369.0,326.0
15:45:06,-1012.0,369.0,326.0
15:45:06,-1012.0,369.0,326.0
15:45:06,-1012.0,369.0,326.0
15:45:06,-502.0,369.0,326.0
15:45:06,-502.0,369.0,326.0
15:45:06,-502.0,369.0,326.0
15:45:06,-502.0,369.0,326.0
15:45:06,-1342.0,368.0,327.0
15:45:06,-1342.0,368.0,327.0
15:45:06,-1342.0,368.0,327.0
15:45:06,-1342.0,368.0,327.0
15:45:06,-1143.0,368.0,326.0
15:45:06,-1143.0,368.0,326.0
15:45:06,-1143.0,368.0,326.0
15:45:06,-1143.0,368.0,326.0
15:45:06,-1006.0,368.0,326.0
15:45:06,-1006.0,368.0,326.0
15:45:06,-1006.0,368.0,326.0
15:45:06,-1006.0,368.0,326.0
15:45:06,-996.0,367.0,327.0
15:45:06,-996.0,367.0,327.0
15:45:06,-996.0,367.0,327.0
15:45:06,-996.0,367.0,327.0
15:45:06,-985.0,369.0,326.0
15:45:06,-985.0,369.0,326.0
15:45:06,-985.0,369.0,326.0
15:45:06,-985.0,369.0,326.0
15:45:06,-953.0,370.0,327.0
15:45:06,-953.0,370.0,327.0
15:45:06,-953.0,370.0,327.0
15:45:06,-953.0,370.0,327.0
15:45:06,-905.0,369.0,327.0
15:45:06,-905.0,369.0,327.0
15:45:06,-905.0,369.0,327.0
15:45:06,-905.0,369.0,327.0
15:45:06,-880.0,369.0,327.0
15:45:06,-880.0,369.0,327.0
15:45:06,-880.0,369.0,327.0
15:45:06,-880.0,369.0,327.0
15:45:06,-813.0,369.0,328.0
15:45:06,-813.0,369.0,328.0
15:45:06,-813.0,369.0,328.0
15:45:06,-813.0,369.0,328.0
15:45:06,-834.0,369.0,328.0
15:45:06,-834.0,369.0,328.0
15:45:06,-834.0,369.0,328.0
15:45:06,-834.0,369.0,328.0
15:45:06,-897.0,368.0,327.0
15:45:06,-897.0,368.0,327.0
15:45:06,-897.0,368.0,327.0
15:45:06,-897.0,368.0,327.0
15:45:06,-1020.0,369.0,327.0
15:45:06,-1020.0,369.0,327.0
15:45:06,-1020.0,369.0,327.0
15:45:06,-1020.0,369.0,327.0
15:45:06,-1043.0,369.0,328.0
15:45:06,-1043.0,369.0,328.0
15:45:06,-1043.0,369.0,328.0
15:45:06,-1043.0,369.0,328.0
15:45:06,-1094.0,367.0,327.0
15:45:06,-1094.0,367.0,327.0
15:45:06,-1094.0,367.0,327.0
15:45:06,-1094.0,367.0,327.0
15:45:06,-1137.0,368.0,326.0
15:45:06,-1137.0,368.0,326.0
15:45:06,-1137.0,368.0,326.0
15:45:06,-1137.0,368.0,326.0
15:45:06,-1207.0,368.0,327.0
15:45:06,-1207.0,368.0,327.0
15:45:06,-1207.0,368.0,327.0
15:45:06,-1207.0,368.0,327.0
15:45:06,-1102.0,368.0,327.0
15:45:06,-1102.0,368.0,327.0
15:45:06,-1102.0,368.0,327.0
15:45:06,-1102.0,368.0,327.0
15:45:06,-1177.0,368.0,327.0
15:45:06,-1177.0,368.0,327.0
15:45:06,-1177.0,368.0,327.0
15:45:06,-1177.0,368.0,327.0
15:45:06,-1102.0,369.0,327.0
15:45:06,-1102.0,369.0,327.0
15:45:06,-1102.0,369.0,327.0
15:45:06,-1102.0,369.0,327.0
15:45:06,-1087.0,368.0,327.0
15:45:06,-1087.0,368.0,327.0
15:45:06,-1087.0,368.0,327.0
15:45:06,-1087.0,368.0,327.0
15:45:06,-1118.0,368.0,327.0
15:45:06,-1118.0,368.0,327.0
15:45:06,-1118.0,368.0,327.0
15:45:06,-1118.0,368.0,327.0
15:45:06,-1173.0,369.0,327.0
15:45:06,-1173.0,369.0,327.0
15:45:06,-1173.0,369.0,327.0
15:45:06,-1173.0,369.0,327.0
15:45:06,-1148.0,369.0,327.0
15:45:06,-1148.0,369.0,327.0
15:45:06,-1148.0,369.0,327.0
15:45:07,-1148.0,369.0,327.0
15:45:07,-1087.0,369.0,328.0
15:45:07,-1087.0,369.0,328.0
15:45:07,-1087.0,369.0,328.0
15:45:07,-1087.0,369.0,328.0
15:45:07,-1167.0,369.0,326.0
15:45:07,-1167.0,369.0,326.0
15:45:07,-1167.0,369.0,326.0
15:45:07,-1167.0,369.0,326.0
15:45:07,-1060.0,369.0,325.0
15:45:07,-1060.0,369.0,325.0
15:45:07,-1060.0,369.0,325.0
15:45:07,-1060.0,369.0,325.0
15:45:07,-1189.0,369.0,326.0
15:45:07,-1189.0,369.0,326.0
15:45:07,-1189.0,369.0,326.0
15:45:07,-1189.0,369.0,326.0
15:45:07,-1212.0,369.0,327.0
15:45:07,-1212.0,369.0,327.0
15:45:07,-1212.0,369.0,327.0
15:45:07,-1212.0,369.0,327.0
15:45:07,-1204.0,368.0,326.0
15:45:07,-1204.0,368.0,326.0
15:45:07,-1204.0,368.0,326.0
15:45:07,-1204.0,368.0,326.0
15:45:07,-859.0,368.0,326.0
15:45:07,-859.0,368.0,326.0
15:45:07,-859.0,368.0,326.0
15:45:07,-859.0,368.0,326.0
15:45:07,-1098.0,368.0,326.0
15:45:07,-1098.0,368.0,326.0
15:45:07,-1098.0,368.0,326.0
15:45:07,-1098.0,368.0,326.0
15:45:07,-1429.0,367.0,326.0
15:45:07,-1429.0,367.0,326.0
15:45:07,-1429.0,367.0,326.0
15:45:07,-1429.0,367.0,326.0
15:45:07,-1174.0,367.0,326.0
15:45:07,-1174.0,367.0,326.0
15:45:07,-1174.0,367.0,326.0
15:45:07,-1174.0,367.0,326.0
15:45:07,-1190.0,367.0,326.0
15:45:07,-1190.0,367.0,326.0
15:45:07,-1190.0,367.0,326.0
15:45:07,-1190.0,367.0,326.0
15:45:07,-1242.0,368.0,326.0
15:45:07,-1242.0,368.0,326.0
15:45:07,-1242.0,368.0,326.0
15:45:07,-1242.0,368.0,326.0
15:45:07,-1147.0,369.0,325.0
15:45:07,-1147.0,369.0,325.0
15:45:07,-1147.0,369.0,325.0
15:45:07,-1147.0,369.0,325.0
15:45:07,-1111.0,368.0,326.0
15:45:07,-1111.0,368.0,326.0
15:45:07,-1111.0,368.0,326.0
15:45:07,-1111.0,368.0,326.0
15:45:07,-1155.0,367.0,327.0
15:45:07,-1155.0,367.0,327.0
15:45:07,-1155.0,367.0,327.0
15:45:07,-1155.0,367.0,327.0
15:45:07,-1012.0,367.0,326.0
15:45:07,-1012.0,367.0,326.0
15:45:07,-1012.0,367.0,326.0
15:45:07,-1012.0,367.0,326.0
15:45:07,-1031.0,367.0,327.0
15:45:07,-1031.0,367.0,327.0
15:45:07,-1031.0,367.0,327.0
15:45:07,-1031.0,367.0,327.0
15:45:07,-1045.0,368.0,328.0
15:45:07,-1045.0,368.0,328.0
15:45:07,-1045.0,368.0,328.0
15:45:07,-1045.0,368.0,328.0
15:45:07,-1192.0,367.0,327.0
15:45:07,-1192.0,367.0,327.0
15:45:07,-1192.0,367.0,327.0
15:45:07,-1192.0,367.0,327.0
15:45:07,-1268.0,369.0,326.0
15:45:07,-1268.0,369.0,326.0
15:45:07,-1268.0,369.0,326.0
15:45:07,-1268.0,369.0,326.0
15:45:07,-1291.0,368.0,327.0
15:45:07,-1291.0,368.0,327.0
15:45:07,-1291.0,368.0,327.0
15:45:07,-1291.0,368.0,327.0
15:45:07,-1252.0,369.0,327.0
15:45:07,-1252.0,369.0,327.0
15:45:07,-1252.0,369.0,327.0
15:45:07,-1252.0,369.0,327.0
15:45:07,-1277.0,369.0,327.0
15:45:07,-1277.0,369.0,327.0
15:45:07,-1277.0,369.0,327.0
15:45:07,-1277.0,369.0,327.0
15:45:07,-1294.0,367.0,327.0
15:45:07,-1294.0,367.0,327.0
15:45:07,-1294.0,367.0,327.0
15:45:07,-1294.0,367.0,327.0
15:45:07,-1315.0,369.0,326.0
15:45:07,-1315.0,369.0,326.0
15:45:07,-1315.0,369.0,326.0
15:45:07,-1315.0,369.0,326.0
15:45:07,-1309.0,369.0,327.0
15:45:07,-1309.0,369.0,327.0
15:45:07,-1309.0,369.0,327.0
15:45:07,-1309.0,369.0,327.0
15:45:07,-1208.0,369.0,327.0
15:45:07,-1208.0,369.0,327.0
15:45:07,-1208.0,369.0,327.0
15:45:07,-1208.0,369.0,327.0
15:45:07,-1263.0,369.0,327.0
15:45:07,-1263.0,369.0,327.0
15:45:07,-1263.0,369.0,327.0
15:45:07,-1263.0,369.0,327.0
15:45:07,-1288.0,370.0,327.0
15:45:07,-1288.0,370.0,327.0
15:45:07,-1288.0,370.0,327.0
15:45:07,-1288.0,370.0,327.0
15:45:07,-1301.0,370.0,327.0
15:45:07,-1301.0,370.0,327.0
15:45:07,-1301.0,370.0,327.0
15:45:07,-1301.0,370.0,327.0
15:45:07,-1256.0,370.0,326.0
15:45:07,-1256.0,370.0,326.0
15:45:07,-1256.0,370.0,326.0
15:45:07,-1256.0,370.0,326.0
15:45:07,-1212.0,370.0,326.0
15:45:07,-1212.0,370.0,326.0
15:45:07,-1212.0,370.0,326.0
15:45:07,-1212.0,370.0,326.0
15:45:07,-1246.0,369.0,327.0
15:45:07,-1246.0,369.0,327.0
15:45:07,-1246.0,369.0,327.0
15:45:07,-1246.0,369.0,327.0
15:45:07,-1089.0,369.0,326.0
15:45:07,-1089.0,369.0,326.0
15:45:07,-1089.0,369.0,326.0
15:45:07,-1089.0,369.0,326.0
15:45:07,-1201.0,369.0,326.0
15:45:07,-1201.0,369.0,326.0
15:45:07,-1201.0,369.0,326.0
15:45:07,-1201.0,369.0,326.0
15:45:07,-1326.0,368.0,326.0
15:45:07,-1326.0,368.0,326.0
15:45:07,-1326.0,368.0,326.0
15:45:07,-1326.0,368.0,326.0
15:45:07,-1294.0,368.0,326.0
15:45:07,-1294.0,368.0,326.0
15:45:07,-1294.0,368.0,326.0
15:45:07,-1294.0,368.0,326.0
15:45:07,-1259.0,369.0,326.0
15:45:07,-1259.0,369.0,326.0
15:45:07,-1259.0,369.0,326.0
15:45:07,-1259.0,369.0,326.0
15:45:07,-627.0,367.0,327.0
15:45:07,-627.0,367.0,327.0
15:45:07,-627.0,367.0,327.0
15:45:07,-627.0,367.0,327.0
15:45:07,-1529.0,368.0,327.0
15:45:07,-1529.0,368.0,327.0
15:45:07,-1529.0,368.0,327.0
15:45:07,-1529.0,368.0,327.0
15:45:07,-1268.0,371.0,328.0
15:45:07,-1268.0,371.0,328.0
15:45:07,-1268.0,371.0,328.0
15:45:07,-1268.0,371.0,328.0
15:45:07,-1235.0,368.0,326.0
15:45:07,-1235.0,368.0,326.0
15:45:07,-1235.0,368.0,326.0
15:45:07,-1235.0,368.0,326.0
15:45:07,-1226.0,369.0,327.0
15:45:07,-1226.0,369.0,327.0
15:45:07,-1226.0,369.0,327.0
15:45:07,-1226.0,369.0,327.0
15:45:07,-1152.0,369.0,326.0
15:45:07,-1152.0,369.0,326.0
15:45:07,-1152.0,369.0,326.0
15:45:07,-1152.0,369.0,326.0
15:45:07,-1154.0,369.0,328.0
15:45:07,-1154.0,369.0,328.0
15:45:07,-1154.0,369.0,328.0
15:45:07,-1154.0,369.0,328.0
15:45:07,-1161.0,369.0,327.0
15:45:07,-1161.0,369.0,327.0
15:45:07,-1161.0,369.0,327.0
15:45:07,-1161.0,369.0,327.0
15:45:07,-985.0,369.0,326.0
15:45:07,-985.0,369.0,326.0
15:45:07,-985.0,369.0,326.0
15:45:07,-985.0,369.0,326.0
15:45:07,-1012.0,369.0,326.0
15:45:07,-1012.0,369.0,326.0
15:45:07,-1012.0,369.0,326.0
15:45:07,-1012.0,369.0,326.0
15:45:07,-1011.0,368.0,326.0
15:45:07,-1011.0,368.0,326.0
15:45:07,-1011.0,368.0,326.0
15:45:07,-1011.0,368.0,326.0
15:45:07,-1074.0,369.0,328.0
15:45:07,-1074.0,369.0,328.0
15:45:07,-1074.0,369.0,328.0
15:45:07,-1074.0,369.0,328.0
15:45:08,-1189.0,366.0,327.0
15:45:08,-1189.0,366.0,327.0
15:45:08,-1189.0,366.0,327.0
15:45:08,-1189.0,366.0,327.0
15:45:08,-1231.0,367.0,326.0
15:45:08,-1231.0,367.0,326.0
15:45:08,-1231.0,367.0,326.0
15:45:08,-1231.0,367.0,326.0
15:45:08,-1265.0,368.0,327.0
15:45:08,-1265.0,368.0,327.0
15:45:08,-1265.0,368.0,327.0
15:45:08,-1265.0,368.0,327.0
15:45:08,-1188.0,368.0,327.0
15:45:08,-1188.0,368.0,327.0
15:45:08,-1188.0,368.0,327.0
15:45:08,-1188.0,368.0,327.0
15:45:08,-1229.0,368.0,327.0
15:45:08,-1229.0,368.0,327.0
15:45:08,-1229.0,368.0,327.0
15:45:08,-1229.0,368.0,327.0
15:45:08,-1196.0,367.0,326.0
15:45:08,-1196.0,367.0,326.0
15:45:08,-1196.0,367.0,326.0
15:45:08,-1196.0,367.0,326.0
15:45:08,-1204.0,369.0,327.0
15:45:08,-1204.0,369.0,327.0
15:45:08,-1204.0,369.0,327.0
15:45:08,-1204.0,369.0,327.0
15:45:08,-1148.0,368.0,326.0
15:45:08,-1148.0,368.0,326.0
15:45:08,-1148.0,368.0,326.0
15:45:08,-1148.0,368.0,326.0
15:45:08,-1156.0,367.0,326.0
15:45:08,-1156.0,367.0,326.0
15:45:08,-1156.0,367.0,326.0
15:45:08,-1156.0,367.0,326.0
15:45:08,-1224.0,370.0,326.0
15:45:08,-1224.0,370.0,326.0
15:45:08,-1224.0,370.0,326.0
15:45:08,-1224.0,370.0,326.0
15:45:08,-1147.0,370.0,325.0
15:45:08,-1147.0,370.0,325.0
15:45:08,-1147.0,370.0,325.0
15:45:08,-1147.0,370.0,325.0
15:45:08,-1162.0,368.0,328.0
15:45:08,-1162.0,368.0,328.0
15:45:08,-1162.0,368.0,328.0
15:45:08,-1162.0,368.0,328.0
15:45:08,-1136.0,369.0,327.0
15:45:08,-1136.0,369.0,327.0
15:45:08,-1136.0,369.0,327.0
15:45:08,-1136.0,369.0,327.0
15:45:08,-1131.0,369.0,327.0
15:45:08,-1131.0,369.0,327.0
15:45:08,-1131.0,369.0,327.0
15:45:08,-1131.0,369.0,327.0
15:45:08,-1141.0,368.0,327.0
15:45:08,-1141.0,368.0,327.0
15:45:08,-1141.0,368.0,327.0
15:45:08,-1141.0,368.0,327.0
15:45:08,-1053.0,369.0,327.0
15:45:08,-1053.0,369.0,327.0
15:45:08,-1053.0,369.0,327.0
15:45:08,-1053.0,369.0,327.0
15:45:08,-1103.0,369.0,326.0
15:45:08,-1103.0,369.0,326.0
15:45:08,-1103.0,369.0,326.0
15:45:08,-1103.0,369.0,326.0
15:45:08,-1159.0,369.0,326.0
15:45:08,-1159.0,369.0,326.0
15:45:08,-1159.0,369.0,326.0
15:45:08,-1159.0,369.0,326.0
15:45:08,-1114.0,369.0,328.0
15:45:08,-1114.0,369.0,328.0
15:45:08,-1114.0,369.0,328.0
15:45:08,-1114.0,369.0,328.0
15:45:08,-1127.0,368.0,327.0
15:45:08,-1127.0,368.0,327.0
15:45:08,-1127.0,368.0,327.0
15:45:08,-1127.0,368.0,327.0
15:45:08,-732.0,368.0,326.0
15:45:08,-732.0,368.0,326.0
15:45:08,-732.0,368.0,326.0
15:45:08,-732.0,368.0,326.0
15:45:08,-1381.0,367.0,326.0
15:45:08,-1381.0,367.0,326.0
15:45:08,-1381.0,367.0,326.0
15:45:08,-1381.0,367.0,326.0
15:45:08,-1264.0,369.0,325.0
15:45:08,-1264.0,369.0,325.0
15:45:08,-1264.0,369.0,325.0
15:45:08,-1264.0,369.0,325.0
15:45:08,-1058.0,367.0,326.0
15:45:08,-1058.0,367.0,326.0
15:45:08,-1058.0,367.0,326.0
15:45:08,-1058.0,367.0,326.0
15:45:08,-1088.0,368.0,326.0
15:45:08,-1088.0,368.0,326.0
15:45:08,-1088.0,368.0,326.0
15:45:08,-1088.0,368.0,326.0
15:45:08,-1013.0,367.0,326.0
15:45:08,-1013.0,367.0,326.0
15:45:08,-1013.0,367.0,326.0
15:45:08,-1013.0,367.0,326.0
15:45:08,-1016.0,368.0,326.0
15:45:08,-1016.0,368.0,326.0
15:45:08,-1016.0,368.0,326.0
15:45:08,-1016.0,368.0,326.0
15:45:08,-956.0,367.0,325.0
15:45:08,-956.0,367.0,325.0
15:45:08,-956.0,367.0,325.0
15:45:08,-956.0,367.0,325.0
15:45:08,-900.0,369.0,325.0
15:45:08,-900.0,369.0,325.0
15:45:08,-900.0,369.0,325.0
15:45:08,-900.0,369.0,325.0
15:45:08,-861.0,368.0,326.0
15:45:08,-861.0,368.0,326.0
15:45:08,-861.0,368.0,326.0
15:45:08,-861.0,368.0,326.0
15:45:08,-873.0,369.0,327.0
15:45:08,-873.0,369.0,327.0
15:45:08,-873.0,369.0,327.0
15:45:08,-873.0,369.0,327.0
15:45:08,-875.0,368.0,326.0
15:45:08,-875.0,368.0,326.0
15:45:08,-875.0,368.0,326.0
15:45:08,-875.0,368.0,326.0
15:45:08,-987.0,369.0,327.0
15:45:08,-987.0,369.0,327.0
15:45:08,-987.0,369.0,327.0
15:45:08,-987.0,369.0,327.0
15:45:08,-1037.0,368.0,327.0
15:45:08,-1037.0,368.0,327.0
15:45:08,-1037.0,368.0,327.0
15:45:08,-1037.0,368.0,327.0
15:45:08,-1014.0,367.0,326.0
15:45:08,-1014.0,367.0,326.0
15:45:08,-1014.0,367.0,326.0
15:45:08,-1014.0,367.0,326.0
15:45:08,-1133.0,368.0,327.0
15:45:08,-1133.0,368.0,327.0
15:45:08,-1133.0,368.0,327.0
15:45:08,-1133.0,368.0,327.0
15:45:08,-1024.0,369.0,326.0
15:45:08,-1024.0,369.0,326.0
15:45:08,-1024.0,369.0,326.0
15:45:08,-1024.0,369.0,326.0
15:45:08,-1039.0,368.0,326.0
15:45:08,-1039.0,368.0,326.0
15:45:08,-1039.0,368.0,326.0
15:45:08,-1039.0,368.0,326.0
15:45:08,-1062.0,368.0,327.0
15:45:08,-1062.0,368.0,327.0
15:45:08,-1062.0,368.0,327.0
15:45:08,-1062.0,368.0,327.0
15:45:08,-1037.0,368.0,328.0
15:45:08,-1037.0,368.0,328.0
15:45:08,-1037.0,368.0,328.0
15:45:08,-1037.0,368.0,328.0
15:45:08,-995.0,369.0,327.0
15:45:08,-995.0,369.0,327.0
15:45:08,-995.0,369.0,327.0
15:45:08,-995.0,369.0,327.0
15:45:08,-1014.0,368.0,327.0
15:45:08,-1014.0,368.0,327.0
15:45:08,-1014.0,368.0,327.0
15:45:08,-1014.0,368.0,327.0
15:45:08,-924.0,368.0,326.0
15:45:08,-924.0,368.0,326.0
15:45:08,-924.0,368.0,326.0
15:45:08,-924.0,368.0,326.0
15:45:08,-999.0,368.0,327.0
15:45:08,-999.0,368.0,327.0
15:45:08,-999.0,368.0,327.0
15:45:08,-999.0,368.0,327.0
15:45:08,-948.0,369.0,327.0
15:45:08,-948.0,369.0,327.0
15:45:08,-948.0,369.0,327.0
15:45:08,-948.0,369.0,327.0
15:45:08,-939.0,369.0,327.0
15:45:08,-939.0,369.0,327.0
15:45:08,-939.0,369.0,327.0
15:45:08,-939.0,369.0,327.0
15:45:08,-893.0,369.0,328.0
15:45:08,-893.0,369.0,328.0
15:45:08,-893.0,369.0,328.0
15:45:08,-893.0,369.0,328.0
15:45:08,-916.0,369.0,327.0
15:45:08,-916.0,369.0,327.0
15:45:08,-916.0,369.0,327.0
15:45:08,-916.0,369.0,327.0
15:45:08,-831.0,369.0,326.0
15:45:08,-831.0,369.0,326.0
15:45:08,-831.0,369.0,326.0
15:45:08,-831.0,369.0,326.0
15:45:08,-868.0,368.0,327.0
15:45:08,-868.0,368.0,327.0
15:45:08,-868.0,368.0,327.0
15:45:08,-868.0,368.0,327.0
15:45:08,-885.0,369.0,328.0
15:45:09,-885.0,369.0,328.0
15:45:09,-885.0,369.0,328.0
15:45:09,-885.0,369.0,328.0
15:45:09,-897.0,369.0,327.0
15:45:09,-897.0,369.0,327.0
15:45:09,-897.0,369.0,327.0
15:45:09,-897.0,369.0,327.0
15:45:09,-900.0,369.0,327.0
15:45:09,-900.0,369.0,327.0
15:45:09,-900.0,369.0,327.0
15:45:09,-900.0,369.0,327.0
15:45:09,-268.0,369.0,326.0
15:45:09,-268.0,369.0,326.0
15:45:09,-268.0,369.0,326.0
15:45:09,-268.0,369.0,326.0
15:45:09,-1247.0,368.0,325.0
15:45:09,-1247.0,368.0,325.0
15:45:09,-1247.0,368.0,325.0
15:45:09,-1247.0,368.0,325.0
15:45:09,-968.0,369.0,326.0
15:45:09,-968.0,369.0,326.0
15:45:09,-968.0,369.0,326.0
15:45:09,-968.0,369.0,326.0
15:45:09,-848.0,368.0,326.0
15:45:09,-848.0,368.0,326.0
15:45:09,-848.0,368.0,326.0
15:45:09,-848.0,368.0,326.0
15:45:09,-821.0,369.0,327.0
15:45:09,-821.0,369.0,327.0
15:45:09,-821.0,369.0,327.0
15:45:09,-821.0,369.0,327.0
15:45:09,-810.0,370.0,326.0
15:45:09,-810.0,370.0,326.0
15:45:09,-810.0,370.0,326.0
15:45:09,-810.0,370.0,326.0
15:45:09,-755.0,370.0,326.0
15:45:09,-755.0,370.0,326.0
15:45:09,-755.0,370.0,326.0
15:45:09,-755.0,370.0,326.0
15:45:09,-709.0,369.0,325.0
15:45:09,-709.0,369.0,325.0
15:45:09,-709.0,369.0,325.0
15:45:09,-709.0,369.0,325.0
15:45:09,-675.0,370.0,326.0
15:45:09,-675.0,370.0,326.0
15:45:09,-675.0,370.0,326.0
15:45:09,-675.0,370.0,326.0
15:45:09,-666.0,368.0,326.0
15:45:09,-666.0,368.0,326.0
15:45:09,-666.0,368.0,326.0
15:45:09,-666.0,368.0,326.0
15:45:09,-614.0,369.0,326.0
15:45:09,-614.0,369.0,326.0
15:45:09,-614.0,369.0,326.0
15:45:09,-614.0,369.0,326.0
15:45:09,-681.0,369.0,327.0
15:45:09,-681.0,369.0,327.0
15:45:09,-681.0,369.0,327.0
15:45:09,-681.0,369.0,327.0
15:45:09,-778.0,369.0,326.0
15:45:09,-778.0,369.0,326.0
15:45:09,-778.0,369.0,326.0
15:45:09,-778.0,369.0,326.0
15:45:09,-870.0,368.0,328.0
15:45:09,-870.0,368.0,328.0
15:45:09,-870.0,368.0,328.0
15:45:09,-870.0,368.0,328.0
15:45:09,-841.0,368.0,326.0
15:45:09,-841.0,368.0,326.0
15:45:09,-841.0,368.0,326.0
15:45:09,-841.0,368.0,326.0
15:45:09,-859.0,368.0,328.0
15:45:09,-859.0,368.0,328.0
15:45:09,-859.0,368.0,328.0
15:45:09,-859.0,368.0,328.0
15:45:09,-835.0,367.0,328.0
15:45:09,-835.0,367.0,328.0
15:45:09,-835.0,367.0,328.0
15:45:09,-835.0,367.0,328.0
15:45:09,-852.0,367.0,328.0
15:45:09,-852.0,367.0,328.0
15:45:09,-852.0,367.0,328.0
15:45:09,-852.0,367.0,328.0
15:45:09,-828.0,369.0,328.0
15:45:09,-828.0,369.0,328.0
15:45:09,-828.0,369.0,328.0
15:45:09,-828.0,369.0,328.0
15:45:09,-773.0,369.0,327.0
15:45:09,-773.0,369.0,327.0
15:45:09,-773.0,369.0,327.0
15:45:09,-773.0,369.0,327.0
15:45:09,-811.0,370.0,328.0
15:45:09,-811.0,370.0,328.0
15:45:09,-811.0,370.0,328.0
15:45:09,-811.0,370.0,328.0
15:45:09,-762.0,369.0,328.0
15:45:09,-762.0,369.0,328.0
15:45:09,-762.0,369.0,328.0
15:45:09,-762.0,369.0,328.0
15:45:09,-800.0,369.0,327.0
15:45:09,-800.0,369.0,327.0
15:45:09,-800.0,369.0,327.0
15:45:09,-800.0,369.0,327.0
15:45:09,-788.0,369.0,328.0
15:45:09,-788.0,369.0,328.0
15:45:09,-788.0,369.0,328.0
15:45:09,-788.0,369.0,328.0
15:45:09,-839.0,370.0,327.0
15:45:09,-839.0,370.0,327.0
15:45:09,-839.0,370.0,327.0
15:45:09,-839.0,370.0,327.0
15:45:09,-767.0,369.0,327.0
15:45:09,-767.0,369.0,327.0
15:45:09,-767.0,369.0,327.0
15:45:09,-767.0,369.0,327.0
15:45:09,-764.0,370.0,327.0
15:45:09,-764.0,370.0,327.0
15:45:09,-764.0,370.0,327.0
15:45:09,-764.0,370.0,327.0
15:45:09,-737.0,368.0,327.0
15:45:09,-737.0,368.0,327.0
15:45:09,-737.0,368.0,327.0
15:45:09,-737.0,368.0,327.0
15:45:09,-810.0,370.0,328.0
15:45:09,-810.0,370.0,328.0
15:45:09,-810.0,370.0,328.0
15:45:09,-810.0,370.0,328.0
15:45:09,-837.0,370.0,327.0
15:45:09,-837.0,370.0,327.0
15:45:09,-837.0,370.0,327.0
15:45:09,-837.0,370.0,327.0
15:45:09,-809.0,368.0,327.0
15:45:09,-809.0,368.0,327.0
15:45:09,-809.0,368.0,327.0
15:45:09,-809.0,368.0,327.0
15:45:09,-759.0,369.0,327.0
15:45:09,-759.0,369.0,327.0
15:45:09,-759.0,369.0,327.0
15:45:09,-759.0,369.0,327.0
15:45:09,-390.0,369.0,326.0
15:45:09,-390.0,369.0,326.0
15:45:09,-390.0,369.0,326.0
15:45:09,-390.0,369.0,326.0
15:45:09,-1091.0,370.0,327.0
15:45:09,-1091.0,370.0,327.0
15:45:09,-1091.0,370.0,327.0
15:45:09,-1091.0,370.0,327.0
15:45:09,-790.0,369.0,327.0
15:45:09,-790.0,369.0,327.0
15:45:09,-790.0,369.0,327.0
15:45:09,-790.0,369.0,327.0
15:45:09,-785.0,368.0,326.0
15:45:09,-785.0,368.0,326.0
15:45:09,-785.0,368.0,326.0
15:45:09,-785.0,368.0,326.0
15:45:09,-764.0,369.0,326.0
15:45:09,-764.0,369.0,326.0
15:45:09,-764.0,369.0,326.0
15:45:09,-764.0,369.0,326.0
15:45:09,-776.0,369.0,327.0
15:45:09,-776.0,369.0,327.0
15:45:09,-776.0,369.0,327.0
15:45:09,-776.0,369.0,327.0
15:45:09,-746.0,369.0,327.0
15:45:09,-746.0,369.0,327.0
15:45:09,-746.0,369.0,327.0
15:45:09,-746.0,369.0,327.0
15:45:09,-693.0,369.0,326.0
15:45:09,-693.0,369.0,326.0
15:45:09,-693.0,369.0,326.0
15:45:09,-693.0,369.0,326.0
15:45:09,-644.0,368.0,328.0
15:45:09,-644.0,368.0,328.0
15:45:09,-644.0,368.0,328.0
15:45:09,-644.0,368.0,328.0
15:45:09,-646.0,369.0,327.0
15:45:09,-646.0,369.0,327.0
15:45:09,-646.0,369.0,327.0
15:45:09,-646.0,369.0,327.0
15:45:09,-673.0,367.0,327.0
15:45:09,-673.0,367.0,327.0
15:45:09,-673.0,367.0,327.0
15:45:09,-673.0,367.0,327.0
15:45:09,-772.0,369.0,326.0
15:45:09,-772.0,369.0,326.0
15:45:09,-772.0,369.0,326.0
15:45:09,-772.0,369.0,326.0
15:45:09,-816.0,369.0,327.0
15:45:09,-816.0,369.0,327.0
15:45:09,-816.0,369.0,327.0
15:45:09,-816.0,369.0,327.0
15:45:09,-967.0,368.0,327.0
15:45:09,-967.0,368.0,327.0
15:45:09,-967.0,368.0,327.0
15:45:09,-967.0,368.0,327.0
15:45:09,-872.0,369.0,327.0
15:45:09,-872.0,369.0,327.0
15:45:09,-872.0,369.0,327.0
15:45:09,-872.0,369.0,327.0
15:45:09,-916.0,369.0,326.0
15:45:09,-916.0,369.0,326.0
15:45:10,-916.0,369.0,326.0
15:45:10,-916.0,369.0,326.0
15:45:10,-928.0,368.0,327.0
15:45:10,-928.0,368.0,327.0
15:45:10,-928.0,368.0,327.0
15:45:10,-928.0,368.0,327.0
15:45:10,-883.0,368.0,328.0
15:45:10,-883.0,368.0,328.0
15:45:10,-883.0,368.0,328.0
15:45:10,-883.0,368.0,328.0
15:45:10,-875.0,368.0,328.0
15:45:10,-875.0,368.0,328.0
15:45:10,-875.0,368.0,328.0
15:45:10,-875.0,368.0,328.0
15:45:10,-905.0,368.0,327.0
15:45:10,-905.0,368.0,327.0
15:45:10,-905.0,368.0,327.0
15:45:10,-905.0,368.0,327.0
15:45:10,-860.0,369.0,328.0
15:45:10,-860.0,369.0,328.0
15:45:10,-860.0,369.0,328.0
15:45:10,-860.0,369.0,328.0
15:45:10,-884.0,367.0,328.0
15:45:10,-884.0,367.0,328.0
15:45:10,-884.0,367.0,328.0
15:45:10,-884.0,367.0,328.0
15:45:10,-917.0,369.0,328.0
15:45:10,-917.0,369.0,328.0
15:45:10,-917.0,369.0,328.0
15:45:10,-917.0,369.0,328.0
15:45:10,-943.0,369.0,328.0
15:45:10,-943.0,369.0,328.0
15:45:10,-943.0,369.0,328.0
15:45:10,-943.0,369.0,328.0
15:45:10,-903.0,370.0,328.0
15:45:10,-903.0,370.0,328.0
15:45:10,-903.0,370.0,328.0
15:45:10,-903.0,370.0,328.0
15:45:10,-951.0,370.0,327.0
15:45:10,-951.0,370.0,327.0
15:45:10,-951.0,370.0,327.0
15:45:10,-951.0,370.0,327.0
15:45:10,-925.0,368.0,327.0
15:45:10,-925.0,368.0,327.0
15:45:10,-925.0,368.0,327.0
15:45:10,-925.0,368.0,327.0
15:45:10,-918.0,369.0,327.0
15:45:10,-918.0,369.0,327.0
15:45:10,-918.0,369.0,327.0
15:45:10,-918.0,369.0,327.0
15:45:10,-909.0,370.0,326.0
15:45:10,-909.0,370.0,326.0
15:45:10,-909.0,370.0,326.0
15:45:10,-909.0,370.0,326.0
15:45:10,-1004.0,369.0,327.0
15:45:10,-1004.0,369.0,327.0
15:45:10,-1004.0,369.0,327.0
15:45:10,-1004.0,369.0,327.0
15:45:10,-1018.0,368.0,326.0
15:45:10,-1018.0,368.0,326.0
15:45:10,-1018.0,368.0,326.0
15:45:10,-1018.0,368.0,326.0
15:45:10,-980.0,369.0,327.0
15:45:10,-980.0,369.0,327.0
15:45:10,-980.0,369.0,327.0
15:45:10,-980.0,369.0,327.0
15:45:10,-705.0,367.0,327.0
15:45:10,-705.0,367.0,327.0
15:45:10,-705.0,367.0,327.0
15:45:10,-705.0,367.0,327.0
15:45:10,-1049.0,368.0,326.0
15:45:10,-1049.0,368.0,326.0
15:45:10,-1049.0,368.0,326.0
15:45:10,-1049.0,368.0,326.0
15:45:10,-1208.0,368.0,327.0
15:45:10,-1208.0,368.0,327.0
15:45:10,-1208.0,368.0,327.0
15:45:10,-1208.0,368.0,327.0
15:45:10,-1038.0,367.0,328.0
15:45:10,-1038.0,367.0,328.0
15:45:10,-1038.0,367.0,328.0
15:45:10,-1038.0,367.0,328.0
15:45:10,-1014.0,368.0,327.0
15:45:10,-1014.0,368.0,327.0
15:45:10,-1014.0,368.0,327.0
15:45:10,-1014.0,368.0,327.0
15:45:10,-992.0,367.0,326.0
15:45:10,-992.0,367.0,326.0
15:45:10,-992.0,367.0,326.0
15:45:10,-992.0,367.0,326.0
15:45:10,-977.0,369.0,328.0
15:45:10,-977.0,369.0,328.0
15:45:10,-977.0,369.0,328.0
15:45:10,-977.0,369.0,328.0
15:45:10,-951.0,368.0,327.0
15:45:10,-951.0,368.0,327.0
15:45:10,-951.0,368.0,327.0
15:45:10,-951.0,368.0,327.0
15:45:10,-963.0,368.0,325.0
15:45:10,-963.0,368.0,325.0
15:45:10,-963.0,368.0,325.0
15:45:10,-963.0,368.0,325.0
15:45:10,-883.0,369.0,325.0
15:45:10,-883.0,369.0,325.0
15:45:10,-883.0,369.0,325.0
15:45:10,-883.0,369.0,325.0
15:45:10,-903.0,368.0,326.0
15:45:10,-903.0,368.0,326.0
15:45:10,-903.0,368.0,326.0
15:45:10,-903.0,368.0,326.0
15:45:10,-952.0,369.0,329.0
15:45:10,-952.0,369.0,329.0
15:45:10,-952.0,369.0,329.0
15:45:10,-952.0,369.0,329.0
15:45:10,-1026.0,369.0,328.0
15:45:10,-1026.0,369.0,328.0
15:45:10,-1026.0,369.0,328.0
15:45:10,-1026.0,369.0,328.0
15:45:10,-1144.0,370.0,326.0
15:45:10,-1144.0,370.0,326.0
15:45:10,-1144.0,370.0,326.0
15:45:10,-1144.0,370.0,326.0
15:45:10,-1140.0,368.0,326.0
15:45:10,-1140.0,368.0,326.0
15:45:10,-1140.0,368.0,326.0
15:45:10,-1140.0,368.0,326.0
15:45:10,-1236.0,368.0,329.0
15:45:10,-1236.0,368.0,329.0
15:45:10,-1236.0,368.0,329.0
15:45:10,-1236.0,368.0,329.0
15:45:10,-1172.0,369.0,328.0
15:45:10,-1172.0,369.0,328.0
15:45:10,-1172.0,369.0,328.0
15:45:10,-1172.0,369.0,328.0
15:45:10,-1171.0,369.0,327.0
15:45:10,-1171.0,369.0,327.0
15:45:10,-1171.0,369.0,327.0
15:45:10,-1171.0,369.0,327.0
15:45:10,-1227.0,368.0,327.0
15:45:10,-1227.0,368.0,327.0
15:45:10,-1227.0,368.0,327.0
15:45:10,-1227.0,368.0,327.0
15:45:10,-1185.0,368.0,327.0
15:45:10,-1185.0,368.0,327.0
15:45:10,-1185.0,368.0,327.0
15:45:10,-1185.0,368.0,327.0
15:45:10,-1183.0,368.0,327.0
15:45:10,-1183.0,368.0,327.0
15:45:10,-1183.0,368.0,327.0
15:45:10,-1183.0,368.0,327.0
15:45:10,-1210.0,369.0,327.0
15:45:10,-1210.0,369.0,327.0
15:45:10,-1210.0,369.0,327.0
15:45:10,-1210.0,369.0,327.0
15:45:10,-1174.0,369.0,327.0
15:45:10,-1174.0,369.0,327.0
15:45:10,-1174.0,369.0,327.0
15:45:10,-1174.0,369.0,327.0
15:45:10,-1169.0,368.0,327.0
15:45:10,-1169.0,368.0,327.0
15:45:10,-1169.0,368.0,327.0
15:45:10,-1169.0,368.0,327.0
15:45:10,-1207.0,369.0,327.0
15:45:10,-1207.0,369.0,327.0
15:45:10,-1207.0,369.0,327.0
15:45:10,-1207.0,369.0,327.0
15:45:10,-1214.0,368.0,327.0
15:45:10,-1214.0,368.0,327.0
15:45:10,-1214.0,368.0,327.0
15:45:10,-1214.0,368.0,327.0
15:45:10,-1155.0,369.0,327.0
15:45:10,-1155.0,369.0,327.0
15:45:10,-1155.0,369.0,327.0
15:45:10,-1155.0,369.0,327.0
15:45:10,-1229.0,368.0,326.0
15:45:10,-1229.0,368.0,326.0
15:45:10,-1229.0,368.0,326.0
15:45:10,-1229.0,368.0,326.0
15:45:10,-1069.0,369.0,327.0
15:45:10,-1069.0,369.0,327.0
15:45:10,-1069.0,369.0,327.0
15:45:10,-1069.0,369.0,327.0
15:45:10,-1172.0,368.0,327.0
15:45:10,-1172.0,368.0,327.0
15:45:10,-1172.0,368.0,327.0
15:45:10,-1172.0,368.0,327.0
15:45:10,-1240.0,367.0,326.0
15:45:10,-1240.0,367.0,326.0
15:45:10,-1240.0,367.0,326.0
15:45:10,-1240.0,367.0,326.0
15:45:10,-1273.0,368.0,327.0
15:45:10,-1273.0,368.0,327.0
15:45:10,-1273.0,368.0,327.0
15:45:10,-1273.0,368.0,327.0
15:45:10,-1277.0,368.0,327.0
15:45:10,-1277.0,368.0,327.0
15:45:10,-1277.0,368.0,327.0
15:45:10,-1277.0,368.0,327.0
15:45:10,-734.0,369.0,327.0
15:45:10,-734.0,369.0,327.0
15:45:10,-734.0,369.0,327.0
15:45:11,-734.0,369.0,327.0
15:45:11,-1627.0,368.0,327.0
15:45:11,-1627.0,368.0,327.0
15:45:11,-1627.0,368.0,327.0
15:45:11,-1627.0,368.0,327.0
15:45:11,-1437.0,368.0,327.0
15:45:11,-1437.0,368.0,327.0
15:45:11,-1437.0,368.0,327.0
15:45:11,-1437.0,368.0,327.0
15:45:11,-1244.0,368.0,328.0
15:45:11,-1244.0,368.0,328.0
15:45:11,-1244.0,368.0,328.0
15:45:11,-1244.0,368.0,328.0
15:45:11,-1235.0,368.0,327.0
15:45:11,-1235.0,368.0,327.0
15:45:11,-1235.0,368.0,327.0
15:45:11,-1235.0,368.0,327.0
15:45:11,-1212.0,367.0,328.0
15:45:11,-1212.0,367.0,328.0
15:45:11,-1212.0,367.0,328.0
15:45:11,-1212.0,367.0,328.0
15:45:11,-1196.0,368.0,327.0
15:45:11,-1196.0,368.0,327.0
15:45:11,-1196.0,368.0,327.0
15:45:11,-1196.0,368.0,327.0
15:45:11,-1212.0,367.0,327.0
15:45:11,-1212.0,367.0,327.0
15:45:11,-1212.0,367.0,327.0
15:45:11,-1212.0,367.0,327.0
15:45:11,-1120.0,368.0,327.0
15:45:11,-1120.0,368.0,327.0
15:45:11,-1120.0,368.0,327.0
15:45:11,-1120.0,368.0,327.0
15:45:11,-1111.0,369.0,327.0
15:45:11,-1111.0,369.0,327.0
15:45:11,-1111.0,369.0,327.0
15:45:11,-1111.0,369.0,327.0
15:45:11,-1146.0,369.0,327.0
15:45:11,-1146.0,369.0,327.0
15:45:11,-1146.0,369.0,327.0
15:45:11,-1146.0,369.0,327.0
15:45:11,-1149.0,369.0,327.0
15:45:11,-1149.0,369.0,327.0
15:45:11,-1149.0,369.0,327.0
15:45:11,-1149.0,369.0,327.0
15:45:11,-1365.0,368.0,327.0
15:45:11,-1365.0,368.0,327.0
15:45:11,-1365.0,368.0,327.0
15:45:11,-1365.0,368.0,327.0
15:45:11,-1351.0,368.0,326.0
15:45:11,-1351.0,368.0,326.0
15:45:11,-1351.0,368.0,326.0
15:45:11,-1351.0,368.0,326.0
15:45:11,-1349.0,368.0,326.0
15:45:11,-1349.0,368.0,326.0
15:45:11,-1349.0,368.0,326.0
15:45:11,-1349.0,368.0,326.0
15:45:11,-1373.0,368.0,325.0
15:45:11,-1373.0,368.0,325.0
15:45:11,-1373.0,368.0,325.0
15:45:11,-1373.0,368.0,325.0
15:45:11,-1363.0,368.0,326.0
15:45:11,-1363.0,368.0,326.0
15:45:11,-1363.0,368.0,326.0
15:45:11,-1363.0,368.0,326.0
15:45:11,-1366.0,368.0,326.0
15:45:11,-1366.0,368.0,326.0
15:45:11,-1366.0,368.0,326.0
15:45:11,-1366.0,368.0,326.0
15:45:11,-1405.0,369.0,328.0
15:45:11,-1405.0,369.0,328.0
15:45:11,-1405.0,369.0,328.0
15:45:11,-1405.0,369.0,328.0
15:45:11,-1378.0,368.0,327.0
15:45:11,-1378.0,368.0,327.0
15:45:11,-1378.0,368.0,327.0
15:45:11,-1378.0,368.0,327.0
15:45:11,-1401.0,367.0,328.0
15:45:11,-1401.0,367.0,328.0
15:45:11,-1401.0,367.0,328.0
15:45:11,-1401.0,367.0,328.0
15:45:11,-1353.0,368.0,328.0
15:45:11,-1353.0,368.0,328.0
15:45:11,-1353.0,368.0,328.0
15:45:11,-1353.0,368.0,328.0
15:45:11,-1379.0,368.0,326.0
15:45:11,-1379.0,368.0,326.0
15:45:11,-1379.0,368.0,326.0
15:45:11,-1379.0,368.0,326.0
15:45:11,-1394.0,369.0,327.0
15:45:11,-1394.0,369.0,327.0
15:45:11,-1394.0,369.0,327.0
15:45:11,-1394.0,369.0,327.0
15:45:11,-1330.0,369.0,326.0
15:45:11,-1330.0,369.0,326.0
15:45:11,-1330.0,369.0,326.0
15:45:11,-1330.0,369.0,326.0
15:45:11,-1340.0,368.0,328.0
15:45:11,-1340.0,368.0,328.0
15:45:11,-1340.0,368.0,328.0
15:45:11,-1340.0,368.0,328.0
15:45:11,-1367.0,369.0,326.0
15:45:11,-1367.0,369.0,326.0
15:45:11,-1367.0,369.0,326.0
15:45:11,-1367.0,369.0,326.0
15:45:11,-1298.0,368.0,326.0
15:45:11,-1298.0,368.0,326.0
15:45:11,-1298.0,368.0,326.0
15:45:11,-1298.0,368.0,326.0
15:45:11,-1268.0,370.0,326.0
15:45:11,-1268.0,370.0,326.0
15:45:11,-1268.0,370.0,326.0
15:45:11,-1268.0,370.0,326.0
15:45:11,-1367.0,369.0,326.0
15:45:11,-1367.0,369.0,326.0
15:45:11,-1367.0,369.0,326.0
15:45:11,-1367.0,369.0,326.0
15:45:11,-1334.0,369.0,326.0
15:45:11,-1334.0,369.0,326.0
15:45:11,-1334.0,369.0,326.0
15:45:11,-1334.0,369.0,326.0
15:45:11,-1361.0,368.0,327.0
15:45:11,-1361.0,368.0,327.0
15:45:11,-1361.0,368.0,327.0
15:45:11,-1361.0,368.0,327.0
15:45:11,-1367.0,368.0,328.0
15:45:11,-1367.0,368.0,328.0
15:45:11,-1367.0,368.0,328.0
15:45:11,-1367.0,368.0,328.0
15:45:11,-711.0,370.0,328.0
15:45:11,-711.0,370.0,328.0
15:45:11,-711.0,370.0,328.0
15:45:11,-711.0,370.0,328.0
15:45:11,-1812.0,369.0,328.0
15:45:11,-1812.0,369.0,328.0
15:45:11,-1812.0,369.0,328.0
15:45:11,-1812.0,369.0,328.0
15:45:11,-1462.0,368.0,328.0
15:45:11,-1462.0,368.0,328.0
15:45:11,-1462.0,368.0,328.0
15:45:11,-1462.0,368.0,328.0
15:45:11,-1355.0,369.0,327.0
15:45:11,-1355.0,369.0,327.0
15:45:11,-1355.0,369.0,327.0
15:45:11,-1355.0,369.0,327.0
15:45:11,-1269.0,369.0,327.0
15:45:11,-1269.0,369.0,327.0
15:45:11,-1269.0,369.0,327.0
15:45:11,-1269.0,369.0,327.0
15:45:11,-1278.0,368.0,326.0
15:45:11,-1278.0,368.0,326.0
15:45:11,-1278.0,368.0,326.0
15:45:11,-1278.0,368.0,326.0
15:45:11,-1240.0,369.0,328.0
15:45:11,-1240.0,369.0,328.0
15:45:11,-1240.0,369.0,328.0
15:45:11,-1240.0,369.0,328.0
15:45:11,-1265.0,369.0,327.0
15:45:11,-1265.0,369.0,327.0
15:45:11,-1265.0,369.0,327.0
15:45:11,-1265.0,369.0,327.0
15:45:11,-1193.0,369.0,327.0
15:45:11,-1193.0,369.0,327.0
15:45:11,-1193.0,369.0,327.0
15:45:11,-1193.0,369.0,327.0
15:45:11,-1131.0,370.0,327.0
15:45:11,-1131.0,370.0,327.0
15:45:11,-1131.0,370.0,327.0
15:45:11,-1131.0,370.0,327.0
15:45:11,-1128.0,368.0,326.0
15:45:11,-1128.0,368.0,326.0
15:45:11,-1128.0,368.0,326.0
15:45:11,-1128.0,368.0,326.0
15:45:11,-1189.0,368.0,327.0
15:45:11,-1189.0,368.0,327.0
15:45:11,-1189.0,368.0,327.0
15:45:11,-1189.0,368.0,327.0
15:45:11,-1320.0,369.0,327.0
15:45:11,-1320.0,369.0,327.0
15:45:11,-1320.0,369.0,327.0
15:45:11,-1320.0,369.0,327.0
15:45:11,-1338.0,369.0,328.0
15:45:11,-1338.0,369.0,328.0
15:45:11,-1338.0,369.0,328.0
15:45:11,-1338.0,369.0,328.0
15:45:11,-1383.0,370.0,327.0
15:45:11,-1383.0,370.0,327.0
15:45:11,-1383.0,370.0,327.0
15:45:11,-1383.0,370.0,327.0
15:45:11,-1363.0,370.0,326.0
15:45:11,-1363.0,370.0,326.0
15:45:11,-1363.0,370.0,326.0
15:45:11,-1363.0,370.0,326.0
15:45:11,-1411.0,368.0,327.0
15:45:11,-1411.0,368.0,327.0
15:45:11,-1411.0,368.0,327.0
15:45:11,-1411.0,368.0,327.0
15:45:11,-1342.0,368.0,328.0
15:45:11,-1342.0,368.0,328.0
15:45:11,-1342.0,368.0,328.0
15:45:12,-1342.0,368.0,328.0
15:45:12,-1318.0,370.0,327.0
15:45:12,-1318.0,370.0,327.0
15:45:12,-1318.0,370.0,327.0
15:45:12,-1318.0,370.0,327.0
15:45:12,-1373.0,368.0,326.0
15:45:12,-1373.0,368.0,326.0
15:45:12,-1373.0,368.0,326.0
15:45:12,-1373.0,368.0,326.0
15:45:12,-1310.0,369.0,326.0
15:45:12,-1310.0,369.0,326.0
15:45:12,-1310.0,369.0,326.0
15:45:12,-1310.0,369.0,326.0
15:45:12,-1326.0,369.0,327.0
15:45:12,-1326.0,369.0,327.0
15:45:12,-1326.0,369.0,327.0
15:45:12,-1326.0,369.0,327.0
15:45:12,-1328.0,368.0,328.0
15:45:12,-1328.0,368.0,328.0
15:45:12,-1328.0,368.0,328.0
15:45:12,-1328.0,368.0,328.0
15:45:12,-1274.0,368.0,328.0
15:45:12,-1274.0,368.0,328.0
15:45:12,-1274.0,368.0,328.0
15:45:12,-1274.0,368.0,328.0
15:45:12,-1360.0,368.0,328.0
15:45:12,-1360.0,368.0,328.0
15:45:12,-1360.0,368.0,328.0
15:45:12,-1360.0,368.0,328.0
15:45:12,-1257.0,368.0,327.0
15:45:12,-1257.0,368.0,327.0
15:45:12,-1257.0,368.0,327.0
15:45:12,-1257.0,368.0,327.0
15:45:12,-1204.0,367.0,327.0
15:45:12,-1204.0,367.0,327.0
15:45:12,-1204.0,367.0,327.0
15:45:12,-1204.0,367.0,327.0
15:45:12,-1127.0,369.0,327.0
15:45:12,-1127.0,369.0,327.0
15:45:12,-1127.0,369.0,327.0
15:45:12,-1127.0,369.0,327.0
15:45:12,-1259.0,369.0,327.0
15:45:12,-1259.0,369.0,327.0
15:45:12,-1259.0,369.0,327.0
15:45:12,-1259.0,369.0,327.0
15:45:12,-1252.0,368.0,325.0
15:45:12,-1252.0,368.0,325.0
15:45:12,-1252.0,368.0,325.0
15:45:12,-1252.0,368.0,325.0
15:45:12,-1230.0,368.0,326.0
15:45:12,-1230.0,368.0,326.0
15:45:12,-1230.0,368.0,326.0
15:45:12,-1230.0,368.0,326.0
15:45:12,-1184.0,369.0,326.0
15:45:12,-1184.0,369.0,326.0
15:45:12,-1184.0,369.0,326.0
15:45:12,-1184.0,369.0,326.0
15:45:12,-663.0,368.0,326.0
15:45:12,-663.0,368.0,326.0
15:45:12,-663.0,368.0,326.0
15:45:12,-663.0,368.0,326.0
15:45:12,-1499.0,369.0,326.0
15:45:12,-1499.0,369.0,326.0
15:45:12,-1499.0,369.0,326.0
15:45:12,-1499.0,369.0,326.0
15:45:12,-1253.0,369.0,327.0
15:45:12,-1253.0,369.0,327.0
15:45:12,-1253.0,369.0,327.0
15:45:12,-1253.0,369.0,327.0
15:45:12,-1271.0,368.0,328.0
15:45:12,-1271.0,368.0,328.0
15:45:12,-1271.0,368.0,328.0
15:45:12,-1271.0,368.0,328.0
15:45:12,-1170.0,368.0,326.0
15:45:12,-1170.0,368.0,326.0
15:45:12,-1170.0,368.0,326.0
15:45:12,-1170.0,368.0,326.0
15:45:12,-1135.0,369.0,327.0
15:45:12,-1135.0,369.0,327.0
15:45:12,-1135.0,369.0,327.0
15:45:12,-1135.0,369.0,327.0
15:45:12,-1105.0,370.0,327.0
15:45:12,-1105.0,370.0,327.0
15:45:12,-1105.0,370.0,327.0
15:45:12,-1105.0,370.0,327.0
15:45:12,-1045.0,370.0,326.0
15:45:12,-1045.0,370.0,326.0
15:45:12,-1045.0,370.0,326.0
15:45:12,-1045.0,370.0,326.0
15:45:12,-981.0,369.0,326.0
15:45:12,-981.0,369.0,326.0
15:45:12,-981.0,369.0,326.0
15:45:12,-981.0,369.0,326.0
15:45:12,-973.0,368.0,327.0
15:45:12,-973.0,368.0,327.0
15:45:12,-973.0,368.0,327.0
15:45:12,-973.0,368.0,327.0
15:45:12,-950.0,369.0,326.0
15:45:12,-950.0,369.0,326.0
15:45:12,-950.0,369.0,326.0
15:45:12,-950.0,369.0,326.0
15:45:12,-1037.0,369.0,326.0
15:45:12,-1037.0,369.0,326.0
15:45:12,-1037.0,369.0,326.0
15:45:12,-1037.0,369.0,326.0
15:45:12,-1143.0,369.0,328.0
15:45:12,-1143.0,369.0,328.0
15:45:12,-1143.0,369.0,328.0
15:45:12,-1143.0,369.0,328.0
15:45:12,-1144.0,367.0,328.0
15:45:12,-1144.0,367.0,328.0
15:45:12,-1144.0,367.0,328.0
15:45:12,-1144.0,367.0,328.0
15:45:12,-1247.0,368.0,327.0
15:45:12,-1247.0,368.0,327.0
15:45:12,-1247.0,368.0,327.0
15:45:12,-1247.0,368.0,327.0
15:45:12,-1154.0,367.0,327.0
15:45:12,-1154.0,367.0,327.0
15:45:12,-1154.0,367.0,327.0
15:45:12,-1154.0,367.0,327.0
15:45:12,-1134.0,369.0,326.0
15:45:12,-1134.0,369.0,326.0
15:45:12,-1134.0,369.0,326.0
15:45:12,-1134.0,369.0,326.0
15:45:12,-1130.0,368.0,326.0
15:45:12,-1130.0,368.0,326.0
15:45:12,-1130.0,368.0,326.0
15:45:12,-1130.0,368.0,326.0
15:45:12,-1212.0,369.0,326.0
15:45:12,-1212.0,369.0,326.0
15:45:12,-1212.0,369.0,326.0
15:45:12,-1212.0,369.0,326.0
15:45:12,-1131.0,369.0,327.0
15:45:12,-1131.0,369.0,327.0
15:45:12,-1131.0,369.0,327.0
15:45:12,-1131.0,369.0,327.0
15:45:12,-1096.0,369.0,327.0
15:45:12,-1096.0,369.0,327.0
15:45:12,-1096.0,369.0,327.0
15:45:12,-1096.0,369.0,327.0
15:45:12,-1082.0,368.0,326.0
15:45:12,-1082.0,368.0,326.0
15:45:12,-1082.0,368.0,326.0
15:45:12,-1082.0,368.0,326.0
15:45:12,-1099.0,369.0,327.0
15:45:12,-1099.0,369.0,327.0
15:45:12,-1099.0,369.0,327.0
15:45:12,-1099.0,369.0,327.0
15:45:12,-1065.0,369.0,327.0
15:45:12,-1065.0,369.0,327.0
15:45:12,-1065.0,369.0,327.0
15:45:12,-1065.0,369.0,327.0
15:45:12,-1020.0,369.0,327.0
15:45:12,-1020.0,369.0,327.0
15:45:12,-1020.0,369.0,327.0
15:45:12,-1020.0,369.0,327.0
15:45:12,-981.0,369.0,328.0
15:45:12,-981.0,369.0,328.0
15:45:12,-981.0,369.0,328.0
15:45:12,-981.0,369.0,328.0
15:45:12,-907.0,370.0,327.0
15:45:12,-907.0,370.0,327.0
15:45:12,-907.0,370.0,327.0
15:45:12,-907.0,370.0,327.0
15:45:12,-1061.0,369.0,327.0
15:45:12,-1061.0,369.0,327.0
15:45:12,-1061.0,369.0,327.0
15:45:12,-1061.0,369.0,327.0
15:45:12,-1045.0,368.0,327.0
15:45:12,-1045.0,368.0,327.0
15:45:12,-1045.0,368.0,327.0
15:45:12,-1045.0,368.0,327.0
15:45:12,-1076.0,368.0,327.0
15:45:12,-1076.0,368.0,327.0
15:45:12,-1076.0,368.0,327.0
15:45:12,-1076.0,368.0,327.0
15:45:12,-912.0,367.0,327.0
15:45:12,-912.0,367.0,327.0
15:45:12,-912.0,367.0,327.0
15:45:12,-912.0,367.0,327.0
15:45:12,-609.0,370.0,327.0
15:45:12,-609.0,370.0,327.0
15:45:12,-609.0,370.0,327.0
15:45:12,-609.0,370.0,327.0
15:45:12,-1302.0,369.0,327.0
15:45:12,-1302.0,369.0,327.0
15:45:12,-1302.0,369.0,327.0
15:45:12,-1302.0,369.0,327.0
15:45:12,-1027.0,369.0,326.0
15:45:12,-1027.0,369.0,326.0
15:45:12,-1027.0,369.0,326.0
15:45:12,-1027.0,369.0,326.0
15:45:12,-1021.0,370.0,328.0
15:45:12,-1021.0,370.0,328.0
15:45:12,-1021.0,370.0,328.0
15:45:12,-1021.0,370.0,328.0
15:45:12,-942.0,369.0,327.0
15:45:12,-942.0,369.0,327.0
15:45:12,-942.0,369.0,327.0
15:45:12,-942.0,369.0,327.0
15:45:13,-1007.0,368.0,327.0
15:45:13,-1007.0,368.0,327.0
15:45:13,-1007.0,368.0,327.0
15:45:13,-1007.0,368.0,327.0
15:45:13,-864.0,368.0,330.0
15:45:13,-864.0,368.0,330.0
15:45:13,-864.0,368.0,330.0
15:45:13,-864.0,368.0,330.0
15:45:13,-820.0,369.0,328.0
15:45:13,-820.0,369.0,328.0
15:45:13,-820.0,369.0,328.0
15:45:13,-820.0,369.0,328.0
15:45:13,-748.0,369.0,325.0
15:45:13,-748.0,369.0,325.0
15:45:13,-748.0,369.0,325.0
15:45:13,-748.0,369.0,325.0
15:45:13,-768.0,369.0,327.0
15:45:13,-768.0,369.0,327.0
15:45:13,-768.0,369.0,327.0
15:45:13,-768.0,369.0,327.0
15:45:13,-800.0,367.0,326.0
15:45:13,-800.0,367.0,326.0
15:45:13,-800.0,367.0,326.0
15:45:13,-800.0,367.0,326.0
15:45:13,-831.0,369.0,328.0
15:45:13,-831.0,369.0,328.0
15:45:13,-831.0,369.0,328.0
15:45:13,-831.0,369.0,328.0
15:45:13,-926.0,368.0,327.0
15:45:13,-926.0,368.0,327.0
15:45:13,-926.0,368.0,327.0
15:45:13,-926.0,368.0,327.0
15:45:13,-945.0,368.0,326.0
15:45:13,-945.0,368.0,326.0
15:45:13,-945.0,368.0,326.0
15:45:13,-945.0,368.0,326.0
15:45:13,-981.0,368.0,326.0
15:45:13,-981.0,368.0,326.0
15:45:13,-981.0,368.0,326.0
15:45:13,-981.0,368.0,326.0
15:45:13,-931.0,369.0,328.0
15:45:13,-931.0,369.0,328.0
15:45:13,-931.0,369.0,328.0
15:45:13,-931.0,369.0,328.0
15:45:13,-952.0,368.0,328.0
15:45:13,-952.0,368.0,328.0
15:45:13,-952.0,368.0,328.0
15:45:13,-952.0,368.0,328.0
15:45:13,-919.0,369.0,327.0
15:45:13,-919.0,369.0,327.0
15:45:13,-919.0,369.0,327.0
15:45:13,-919.0,369.0,327.0
15:45:13,-961.0,369.0,328.0
15:45:13,-961.0,369.0,328.0
15:45:13,-961.0,369.0,328.0
15:45:13,-961.0,369.0,328.0
15:45:13,-869.0,369.0,328.0
15:45:13,-869.0,369.0,328.0
15:45:13,-869.0,369.0,328.0
15:45:13,-869.0,369.0,328.0
15:45:13,-928.0,368.0,328.0
15:45:13,-928.0,368.0,328.0
15:45:13,-928.0,368.0,328.0
15:45:13,-928.0,368.0,328.0
15:45:13,-904.0,369.0,328.0
15:45:13,-904.0,369.0,328.0
15:45:13,-904.0,369.0,328.0
15:45:13,-904.0,369.0,328.0
15:45:13,-872.0,369.0,327.0
15:45:13,-872.0,369.0,327.0
15:45:13,-872.0,369.0,327.0
15:45:13,-872.0,369.0,327.0
15:45:13,-917.0,370.0,325.0
15:45:13,-917.0,370.0,325.0
15:45:13,-917.0,370.0,325.0
15:45:13,-917.0,370.0,325.0
15:45:13,-909.0,369.0,325.0
15:45:13,-909.0,369.0,325.0
15:45:13,-909.0,369.0,325.0
15:45:13,-909.0,369.0,325.0
15:45:13,-921.0,367.0,326.0
15:45:13,-921.0,367.0,326.0
15:45:13,-921.0,367.0,326.0
15:45:13,-921.0,367.0,326.0
15:45:13,-794.0,369.0,326.0
15:45:13,-794.0,369.0,326.0
15:45:13,-794.0,369.0,326.0
15:45:13,-794.0,369.0,326.0
15:45:13,-901.0,368.0,326.0
15:45:13,-901.0,368.0,326.0
15:45:13,-901.0,368.0,326.0
15:45:13,-901.0,368.0,326.0
15:45:13,-888.0,369.0,325.0
15:45:13,-888.0,369.0,325.0
15:45:13,-888.0,369.0,325.0
15:45:13,-888.0,369.0,325.0
15:45:13,-942.0,367.0,326.0
15:45:13,-942.0,367.0,326.0
15:45:13,-942.0,367.0,326.0
15:45:13,-942.0,367.0,326.0
15:45:13,-832.0,367.0,326.0
15:45:13,-832.0,367.0,326.0
15:45:13,-832.0,367.0,326.0
15:45:13,-832.0,367.0,326.0
15:45:13,-400.0,368.0,325.0
15:45:13,-400.0,368.0,325.0
15:45:13,-400.0,368.0,325.0
15:45:13,-400.0,368.0,325.0
15:45:13,-1162.0,369.0,326.0
15:45:13,-1162.0,369.0,326.0
15:45:13,-1162.0,369.0,326.0
15:45:13,-1162.0,369.0,326.0
15:45:13,-948.0,369.0,326.0
15:45:13,-948.0,369.0,326.0
15:45:13,-948.0,369.0,326.0
15:45:13,-948.0,369.0,326.0
15:45:13,-926.0,368.0,327.0
15:45:13,-926.0,368.0,327.0
15:45:13,-926.0,368.0,327.0
15:45:13,-926.0,368.0,327.0
15:45:13,-882.0,368.0,327.0
15:45:13,-882.0,368.0,327.0
15:45:13,-882.0,368.0,327.0
15:45:13,-882.0,368.0,327.0
15:45:13,-874.0,368.0,327.0
15:45:13,-874.0,368.0,327.0
15:45:13,-874.0,368.0,327.0
15:45:13,-874.0,368.0,327.0
15:45:13,-864.0,368.0,326.0
15:45:13,-864.0,368.0,326.0
15:45:13,-864.0,368.0,326.0
15:45:13,-864.0,368.0,326.0
15:45:13,-798.0,368.0,327.0
15:45:13,-798.0,368.0,327.0
15:45:13,-798.0,368.0,327.0
15:45:13,-798.0,368.0,327.0
15:45:13,-725.0,368.0,328.0
15:45:13,-725.0,368.0,328.0
15:45:13,-725.0,368.0,328.0
15:45:13,-725.0,368.0,328.0
15:45:13,-724.0,367.0,328.0
15:45:13,-724.0,367.0,328.0
15:45:13,-724.0,367.0,328.0
15:45:13,-724.0,367.0,328.0
15:45:13,-786.0,368.0,326.0
15:45:13,-786.0,368.0,326.0
15:45:13,-786.0,368.0,326.0
15:45:13,-786.0,368.0,326.0
15:45:13,-932.0,368.0,328.0
15:45:13,-932.0,368.0,328.0
15:45:13,-932.0,368.0,328.0
15:45:13,-932.0,368.0,328.0
15:45:13,-961.0,368.0,327.0
15:45:13,-961.0,368.0,327.0
15:45:13,-961.0,368.0,327.0
15:45:13,-961.0,368.0,327.0
15:45:13,-994.0,368.0,327.0
15:45:13,-994.0,368.0,327.0
15:45:13,-994.0,368.0,327.0
15:45:13,-994.0,368.0,327.0
15:45:13,-963.0,368.0,327.0
15:45:13,-963.0,368.0,327.0
15:45:13,-963.0,368.0,327.0
15:45:13,-963.0,368.0,327.0
15:45:13,-1051.0,368.0,327.0
15:45:13,-1051.0,368.0,327.0
15:45:13,-1051.0,368.0,327.0
15:45:13,-1051.0,368.0,327.0
15:45:13,-982.0,367.0,327.0
15:45:13,-982.0,367.0,327.0
15:45:13,-982.0,367.0,327.0
15:45:13,-982.0,367.0,327.0
15:45:13,-1025.0,369.0,327.0
15:45:13,-1025.0,369.0,327.0
15:45:13,-1025.0,369.0,327.0
15:45:13,-1025.0,369.0,327.0
15:45:13,-1019.0,370.0,327.0
15:45:13,-1019.0,370.0,327.0
15:45:13,-1019.0,370.0,327.0
15:45:13,-1019.0,370.0,327.0
15:45:13,-928.0,368.0,327.0
15:45:13,-928.0,368.0,327.0
15:45:13,-928.0,368.0,327.0
15:45:13,-928.0,368.0,327.0
15:45:13,-1023.0,369.0,328.0
15:45:13,-1023.0,369.0,328.0
15:45:13,-1023.0,369.0,328.0
15:45:13,-1023.0,369.0,328.0
15:45:13,-1004.0,369.0,327.0
15:45:13,-1004.0,369.0,327.0
15:45:13,-1004.0,369.0,327.0
15:45:13,-1004.0,369.0,327.0
15:45:13,-1008.0,368.0,328.0
15:45:13,-1008.0,368.0,328.0
15:45:13,-1008.0,368.0,328.0
15:45:13,-1008.0,368.0,328.0
15:45:13,-1039.0,369.0,327.0
15:45:13,-1039.0,369.0,327.0
15:45:13,-1039.0,369.0,327.0
15:45:13,-1039.0,369.0,327.0
15:45:13,-1042.0,368.0,328.0
15:45:14,-1042.0,368.0,328.0
15:45:14,-1042.0,368.0,328.0
15:45:14,-1042.0,368.0,328.0
15:45:14,-998.0,369.0,326.0
15:45:14,-998.0,369.0,326.0
15:45:14,-998.0,369.0,326.0
15:45:14,-998.0,369.0,326.0
15:45:14,-947.0,370.0,326.0
15:45:14,-947.0,370.0,326.0
15:45:14,-947.0,370.0,326.0
15:45:14,-947.0,370.0,326.0
15:45:14,-1037.0,369.0,325.0
15:45:14,-1037.0,369.0,325.0
15:45:14,-1037.0,369.0,325.0
15:45:14,-1037.0,369.0,325.0
15:45:14,-1051.0,368.0,326.0
15:45:14,-1051.0,368.0,326.0
15:45:14,-1051.0,368.0,326.0
15:45:14,-1051.0,368.0,326.0
15:45:14,-1040.0,368.0,326.0
15:45:14,-1040.0,368.0,326.0
15:45:14,-1040.0,368.0,326.0
15:45:14,-1040.0,368.0,326.0
15:45:14,-1121.0,368.0,326.0
15:45:14,-1121.0,368.0,326.0
15:45:14,-1121.0,368.0,326.0
15:45:14,-1121.0,368.0,326.0
15:45:14,-441.0,367.0,325.0
15:45:14,-441.0,367.0,325.0
15:45:14,-441.0,367.0,325.0
15:45:14,-441.0,367.0,325.0
15:45:14,-1375.0,368.0,326.0
15:45:14,-1375.0,368.0,326.0
15:45:14,-1375.0,368.0,326.0
15:45:14,-1375.0,368.0,326.0
15:45:14,-1102.0,369.0,326.0
15:45:14,-1102.0,369.0,326.0
15:45:14,-1102.0,369.0,326.0
15:45:14,-1102.0,369.0,326.0
15:45:14,-1087.0,368.0,326.0
15:45:14,-1087.0,368.0,326.0
15:45:14,-1087.0,368.0,326.0
15:45:14,-1087.0,368.0,326.0
15:45:14,-1100.0,369.0,328.0
15:45:14,-1100.0,369.0,328.0
15:45:14,-1100.0,369.0,328.0
15:45:14,-1100.0,369.0,328.0
15:45:14,-1082.0,370.0,326.0
15:45:14,-1082.0,370.0,326.0
15:45:14,-1082.0,370.0,326.0
15:45:14,-1082.0,370.0,326.0
15:45:14,-1089.0,369.0,327.0
15:45:14,-1089.0,369.0,327.0
15:45:14,-1089.0,369.0,327.0
15:45:14,-1089.0,369.0,327.0
15:45:14,-1016.0,368.0,328.0
15:45:14,-1016.0,368.0,328.0
15:45:14,-1016.0,368.0,328.0
15:45:14,-1016.0,368.0,328.0
15:45:14,-993.0,369.0,326.0
15:45:14,-993.0,369.0,326.0
15:45:14,-993.0,369.0,326.0
15:45:14,-993.0,369.0,326.0
15:45:14,-987.0,369.0,328.0
15:45:14,-987.0,369.0,328.0
15:45:14,-987.0,369.0,328.0
15:45:14,-987.0,369.0,328.0
15:45:14,-952.0,369.0,327.0
15:45:14,-952.0,369.0,327.0
15:45:14,-952.0,369.0,327.0
15:45:14,-952.0,369.0,327.0
15:45:14,-1064.0,369.0,327.0
15:45:14,-1064.0,369.0,327.0
15:45:14,-1064.0,369.0,327.0
15:45:14,-1064.0,369.0,327.0
15:45:14,-1164.0,370.0,327.0
15:45:14,-1164.0,370.0,327.0
15:45:14,-1164.0,370.0,327.0
15:45:14,-1164.0,370.0,327.0
15:45:14,-1214.0,369.0,328.0
15:45:14,-1214.0,369.0,328.0
15:45:14,-1214.0,369.0,328.0
15:45:14,-1214.0,369.0,328.0
15:45:14,-1282.0,369.0,327.0
15:45:14,-1282.0,369.0,327.0
15:45:14,-1282.0,369.0,327.0
15:45:14,-1282.0,369.0,327.0
15:45:14,-1213.0,369.0,327.0
15:45:14,-1213.0,369.0,327.0
15:45:14,-1213.0,369.0,327.0
15:45:14,-1213.0,369.0,327.0
15:45:14,-1318.0,370.0,328.0
15:45:14,-1318.0,370.0,328.0
15:45:14,-1318.0,370.0,328.0
15:45:14,-1318.0,370.0,328.0
15:45:14,-1212.0,369.0,328.0
15:45:14,-1212.0,369.0,328.0
15:45:14,-1212.0,369.0,328.0
15:45:14,-1212.0,369.0,328.0
15:45:14,-1260.0,368.0,328.0
15:45:14,-1260.0,368.0,328.0
15:45:14,-1260.0,368.0,328.0
15:45:14,-1260.0,368.0,328.0
15:45:14,-1237.0,369.0,327.0
15:45:14,-1237.0,369.0,327.0
15:45:14,-1237.0,369.0,327.0
15:45:14,-1237.0,369.0,327.0
15:45:14,-1236.0,368.0,326.0
15:45:14,-1236.0,368.0,326.0
15:45:14,-1236.0,368.0,326.0
15:45:14,-1236.0,368.0,326.0
15:45:14,-1287.0,369.0,326.0
15:45:14,-1287.0,369.0,326.0
15:45:14,-1287.0,369.0,326.0
15:45:14,-1287.0,369.0,326.0
15:45:14,-1259.0,370.0,326.0
15:45:14,-1259.0,370.0,326.0
15:45:14,-1259.0,370.0,326.0
15:45:14,-1259.0,370.0,326.0
15:45:14,-1302.0,368.0,327.0
15:45:14,-1302.0,368.0,327.0
15:45:14,-1302.0,368.0,327.0
15:45:14,-1302.0,368.0,327.0
15:45:14,-1297.0,369.0,327.0
15:45:14,-1297.0,369.0,327.0
15:45:14,-1297.0,369.0,327.0
15:45:14,-1297.0,369.0,327.0
15:45:14,-1261.0,370.0,326.0
15:45:14,-1261.0,370.0,326.0
15:45:14,-1261.0,370.0,326.0
15:45:14,-1261.0,370.0,326.0
15:45:14,-1192.0,367.0,327.0
15:45:14,-1192.0,367.0,327.0
15:45:14,-1192.0,367.0,327.0
15:45:14,-1192.0,367.0,327.0
15:45:14,-1212.0,369.0,327.0
15:45:14,-1212.0,369.0,327.0
15:45:14,-1212.0,369.0,327.0
15:45:14,-1212.0,369.0,327.0
15:45:14,-1308.0,369.0,327.0
15:45:14,-1308.0,369.0,327.0
15:45:14,-1308.0,369.0,327.0
15:45:14,-1308.0,369.0,327.0
15:45:14,-1322.0,369.0,327.0
15:45:14,-1322.0,369.0,327.0
15:45:14,-1322.0,369.0,327.0
15:45:14,-1322.0,369.0,327.0
15:45:14,-1328.0,368.0,326.0
15:45:14,-1328.0,368.0,326.0
15:45:14,-1328.0,368.0,326.0
15:45:14,-1328.0,368.0,326.0
15:45:14,-1032.0,369.0,327.0
15:45:14,-1032.0,369.0,327.0
15:45:14,-1032.0,369.0,327.0
15:45:14,-1032.0,369.0,327.0
15:45:14,-1279.0,369.0,328.0
15:45:14,-1279.0,369.0,328.0
15:45:14,-1279.0,369.0,328.0
15:45:14,-1279.0,369.0,328.0
15:45:14,-1515.0,368.0,326.0
15:45:14,-1515.0,368.0,326.0
15:45:14,-1515.0,368.0,326.0
15:45:14,-1515.0,368.0,326.0
15:45:14,-1345.0,369.0,327.0
15:45:14,-1345.0,369.0,327.0
15:45:14,-1345.0,369.0,327.0
15:45:14,-1345.0,369.0,327.0
15:45:14,-1329.0,369.0,328.0
15:45:14,-1329.0,369.0,328.0
15:45:14,-1329.0,369.0,328.0
15:45:14,-1329.0,369.0,328.0
15:45:14,-1298.0,369.0,328.0
15:45:14,-1298.0,369.0,328.0
15:45:14,-1298.0,369.0,328.0
15:45:14,-1298.0,369.0,328.0
15:45:14,-1327.0,368.0,328.0
15:45:14,-1327.0,368.0,328.0
15:45:14,-1327.0,368.0,328.0
15:45:14,-1327.0,368.0,328.0
15:45:14,-1300.0,368.0,326.0
15:45:14,-1300.0,368.0,326.0
15:45:14,-1300.0,368.0,326.0
15:45:14,-1300.0,368.0,326.0
15:45:14,-1224.0,367.0,327.0
15:45:14,-1224.0,367.0,327.0
15:45:14,-1224.0,367.0,327.0
15:45:14,-1224.0,367.0,327.0
15:45:14,-1213.0,368.0,327.0
15:45:14,-1213.0,368.0,327.0
15:45:14,-1213.0,368.0,327.0
15:45:14,-1213.0,368.0,327.0
15:45:14,-1241.0,368.0,327.0
15:45:14,-1241.0,368.0,327.0
15:45:14,-1241.0,368.0,327.0
15:45:14,-1241.0,368.0,327.0
15:45:14,-1285.0,369.0,326.0
15:45:14,-1285.0,369.0,326.0
15:45:14,-1285.0,369.0,326.0
15:45:14,-1285.0,369.0,326.0
15:45:14,-1363.0,368.0,327.0
15:45:14,-1363.0,368.0,327.0
15:45:15,-1363.0,368.0,327.0
15:45:15,-1363.0,368.0,327.0
15:45:15,-1425.0,368.0,326.0
15:45:15,-1425.0,368.0,326.0
15:45:15,-1425.0,368.0,326.0
15:45:15,-1425.0,368.0,326.0
15:45:15,-1388.0,369.0,326.0
15:45:15,-1388.0,369.0,326.0
15:45:15,-1388.0,369.0,326.0
15:45:15,-1388.0,369.0,326.0
15:45:15,-1483.0,369.0,326.0
15:45:15,-1483.0,369.0,326.0
15:45:15,-1483.0,369.0,326.0
15:45:15,-1483.0,369.0,326.0
15:45:15,-1508.0,369.0,326.0
15:45:15,-1508.0,369.0,326.0
15:45:15,-1508.0,369.0,326.0
15:45:15,-1508.0,369.0,326.0
15:45:15,-1433.0,368.0,326.0
15:45:15,-1433.0,368.0,326.0
15:45:15,-1433.0,368.0,326.0
15:45:15,-1433.0,368.0,326.0
15:45:15,-1476.0,367.0,326.0
15:45:15,-1476.0,367.0,326.0
15:45:15,-1476.0,367.0,326.0
15:45:15,-1476.0,367.0,326.0
15:45:15,-1440.0,368.0,326.0
15:45:15,-1440.0,368.0,326.0
15:45:15,-1440.0,368.0,326.0
15:45:15,-1440.0,368.0,326.0
15:45:15,-1454.0,368.0,325.0
15:45:15,-1454.0,368.0,325.0
15:45:15,-1454.0,368.0,325.0
15:45:15,-1454.0,368.0,325.0
15:45:15,-1441.0,368.0,326.0
15:45:15,-1441.0,368.0,326.0
15:45:15,-1441.0,368.0,326.0
15:45:15,-1441.0,368.0,326.0
15:45:15,-1418.0,369.0,325.0
15:45:15,-1418.0,369.0,325.0
15:45:15,-1418.0,369.0,325.0
15:45:15,-1418.0,369.0,325.0
15:45:15,-1417.0,369.0,326.0
15:45:15,-1417.0,369.0,326.0
15:45:15,-1417.0,369.0,326.0
15:45:15,-1417.0,369.0,326.0
15:45:15,-1489.0,368.0,327.0
15:45:15,-1489.0,368.0,327.0
15:45:15,-1489.0,368.0,327.0
15:45:15,-1489.0,368.0,327.0
15:45:15,-1433.0,369.0,326.0
15:45:15,-1433.0,369.0,326.0
15:45:15,-1433.0,369.0,326.0
15:45:15,-1433.0,369.0,326.0
15:45:15,-1462.0,368.0,328.0
15:45:15,-1462.0,368.0,328.0
15:45:15,-1462.0,368.0,328.0
15:45:15,-1462.0,368.0,328.0
15:45:15,-1356.0,368.0,328.0
15:45:15,-1356.0,368.0,328.0
15:45:15,-1356.0,368.0,328.0
15:45:15,-1356.0,368.0,328.0
15:45:15,-1485.0,369.0,326.0
15:45:15,-1485.0,369.0,326.0
15:45:15,-1485.0,369.0,326.0
15:45:15,-1485.0,369.0,326.0
15:45:15,-1506.0,369.0,327.0
15:45:15,-1506.0,369.0,327.0
15:45:15,-1506.0,369.0,327.0
15:45:15,-1506.0,369.0,327.0
15:45:15,-1551.0,369.0,327.0
15:45:15,-1551.0,369.0,327.0
15:45:15,-1551.0,369.0,327.0
15:45:15,-1551.0,369.0,327.0
15:45:15,-1510.0,369.0,327.0
15:45:15,-1510.0,369.0,327.0
15:45:15,-1510.0,369.0,327.0
15:45:15,-1510.0,369.0,327.0
15:45:15,-989.0,368.0,327.0
15:45:15,-989.0,368.0,327.0
15:45:15,-989.0,368.0,327.0
15:45:15,-989.0,368.0,327.0
15:45:15,-1927.0,367.0,326.0
15:45:15,-1927.0,367.0,326.0
15:45:15,-1927.0,367.0,326.0
15:45:15,-1927.0,367.0,326.0
15:45:15,-1663.0,368.0,324.0
15:45:15,-1663.0,368.0,324.0
15:45:15,-1663.0,368.0,324.0
15:45:15,-1663.0,368.0,324.0
15:45:15,-1428.0,369.0,326.0
15:45:15,-1428.0,369.0,326.0
15:45:15,-1428.0,369.0,326.0
15:45:15,-1428.0,369.0,326.0
15:45:15,-1479.0,367.0,326.0
15:45:15,-1479.0,367.0,326.0
15:45:15,-1479.0,367.0,326.0
15:45:15,-1479.0,367.0,326.0
15:45:15,-1438.0,370.0,325.0
15:45:15,-1438.0,370.0,325.0
15:45:15,-1438.0,370.0,325.0
15:45:15,-1438.0,370.0,325.0
15:45:15,-1430.0,369.0,327.0
15:45:15,-1430.0,369.0,327.0
15:45:15,-1430.0,369.0,327.0
15:45:15,-1430.0,369.0,327.0
15:45:15,-1387.0,369.0,327.0
15:45:15,-1387.0,369.0,327.0
15:45:15,-1387.0,369.0,327.0
15:45:15,-1387.0,369.0,327.0
15:45:15,-1354.0,369.0,327.0
15:45:15,-1354.0,369.0,327.0
15:45:15,-1354.0,369.0,327.0
15:45:15,-1354.0,369.0,327.0
15:45:15,-1271.0,369.0,327.0
15:45:15,-1271.0,369.0,327.0
15:45:15,-1271.0,369.0,327.0
15:45:15,-1271.0,369.0,327.0
15:45:15,-1350.0,369.0,328.0
15:45:15,-1350.0,369.0,328.0
15:45:15,-1350.0,369.0,328.0
15:45:15,-1350.0,369.0,328.0
15:45:15,-1346.0,368.0,327.0
15:45:15,-1346.0,368.0,327.0
15:45:15,-1346.0,368.0,327.0
15:45:15,-1346.0,368.0,327.0
15:45:15,-1456.0,369.0,328.0
15:45:15,-1456.0,369.0,328.0
15:45:15,-1456.0,369.0,328.0
15:45:15,-1456.0,369.0,328.0
15:45:15,-1551.0,369.0,327.0
15:45:15,-1551.0,369.0,327.0
15:45:15,-1551.0,369.0,327.0
15:45:15,-1551.0,369.0,327.0
15:45:15,-1502.0,370.0,326.0
15:45:15,-1502.0,370.0,326.0
15:45:15,-1502.0,370.0,326.0
15:45:15,-1502.0,370.0,326.0
15:45:15,-1567.0,369.0,328.0
15:45:15,-1567.0,369.0,328.0
15:45:15,-1567.0,369.0,328.0
15:45:15,-1567.0,369.0,328.0
15:45:15,-1509.0,369.0,328.0
15:45:15,-1509.0,369.0,328.0
15:45:15,-1509.0,369.0,328.0
15:45:15,-1509.0,369.0,328.0
15:45:15,-1507.0,369.0,326.0
15:45:15,-1507.0,369.0,326.0
15:45:15,-1507.0,369.0,326.0
15:45:15,-1507.0,369.0,326.0
15:45:15,-1491.0,370.0,326.0
15:45:15,-1491.0,370.0,326.0
15:45:15,-1491.0,370.0,326.0
15:45:15,-1491.0,370.0,326.0
15:45:15,-1459.0,370.0,326.0
15:45:15,-1459.0,370.0,326.0
15:45:15,-1459.0,370.0,326.0
15:45:15,-1459.0,370.0,326.0
15:45:15,-1436.0,369.0,326.0
15:45:15,-1436.0,369.0,326.0
15:45:15,-1436.0,369.0,326.0
15:45:15,-1436.0,369.0,326.0
15:45:15,-1438.0,369.0,326.0
15:45:15,-1438.0,369.0,326.0
15:45:15,-1438.0,369.0,326.0
15:45:15,-1438.0,369.0,326.0
15:45:15,-1448.0,370.0,326.0
15:45:15,-1448.0,370.0,326.0
15:45:15,-1448.0,370.0,326.0
15:45:15,-1448.0,370.0,326.0
15:45:15,-1370.0,368.0,328.0
15:45:15,-1370.0,368.0,328.0
15:45:15,-1370.0,368.0,328.0
15:45:15,-1370.0,368.0,328.0
15:45:15,-1410.0,368.0,328.0
15:45:15,-1410.0,368.0,328.0
15:45:15,-1410.0,368.0,328.0
15:45:15,-1410.0,368.0,328.0
15:45:15,-1382.0,368.0,328.0
15:45:15,-1382.0,368.0,328.0
15:45:15,-1382.0,368.0,328.0
15:45:15,-1382.0,368.0,328.0
15:45:15,-1397.0,368.0,327.0
15:45:15,-1397.0,368.0,327.0
15:45:15,-1397.0,368.0,327.0
15:45:15,-1397.0,368.0,327.0
15:45:15,-1349.0,367.0,327.0
15:45:15,-1349.0,367.0,327.0
15:45:15,-1349.0,367.0,327.0
15:45:15,-1349.0,367.0,327.0
15:45:15,-1363.0,368.0,328.0
15:45:15,-1363.0,368.0,328.0
15:45:15,-1363.0,368.0,328.0
15:45:15,-1363.0,368.0,328.0
15:45:15,-1357.0,368.0,325.0
15:45:15,-1357.0,368.0,325.0
15:45:15,-1357.0,368.0,325.0
15:45:15,-1357.0,368.0,325.0
15:45:15,-1388.0,367.0,326.0
15:45:15,-1388.0,367.0,326.0
15:45:15,-1388.0,367.0,326.0
15:45:16,-1388.0,367.0,326.0
15:45:16,-1092.0,367.0,326.0
15:45:16,-1092.0,367.0,326.0
15:45:16,-1092.0,367.0,326.0
15:45:16,-1092.0,367.0,326.0
15:45:16,-1182.0,368.0,326.0
15:45:16,-1182.0,368.0,326.0
15:45:16,-1182.0,368.0,326.0
15:45:16,-1182.0,368.0,326.0
15:45:16,-1581.0,369.0,326.0
15:45:16,-1581.0,369.0,326.0
15:45:16,-1581.0,369.0,326.0
15:45:16,-1581.0,369.0,326.0
15:45:16,-1323.0,368.0,326.0
15:45:16,-1323.0,368.0,326.0
15:45:16,-1323.0,368.0,326.0
15:45:16,-1323.0,368.0,326.0
15:45:16,-1289.0,367.0,325.0
15:45:16,-1289.0,367.0,325.0
15:45:16,-1289.0,367.0,325.0
15:45:16,-1289.0,367.0,325.0
15:45:16,-1275.0,369.0,326.0
15:45:16,-1275.0,369.0,326.0
15:45:16,-1275.0,369.0,326.0
15:45:16,-1275.0,369.0,326.0
15:45:16,-1226.0,367.0,327.0
15:45:16,-1226.0,367.0,327.0
15:45:16,-1226.0,367.0,327.0
15:45:16,-1226.0,367.0,327.0
15:45:16,-1157.0,368.0,327.0
15:45:16,-1157.0,368.0,327.0
15:45:16,-1157.0,368.0,327.0
15:45:16,-1157.0,368.0,327.0
15:45:16,-1099.0,368.0,327.0
15:45:16,-1099.0,368.0,327.0
15:45:16,-1099.0,368.0,327.0
15:45:16,-1099.0,368.0,327.0
15:45:16,-1033.0,369.0,327.0
15:45:16,-1033.0,369.0,327.0
15:45:16,-1033.0,369.0,327.0
15:45:16,-1033.0,369.0,327.0
15:45:16,-1086.0,368.0,328.0
15:45:16,-1086.0,368.0,328.0
15:45:16,-1086.0,368.0,328.0
15:45:16,-1086.0,368.0,328.0
15:45:16,-1087.0,369.0,325.0
15:45:16,-1087.0,369.0,325.0
15:45:16,-1087.0,369.0,325.0
15:45:16,-1087.0,369.0,325.0
15:45:16,-1104.0,370.0,325.0
15:45:16,-1104.0,370.0,325.0
15:45:16,-1104.0,370.0,325.0
15:45:16,-1104.0,370.0,325.0
15:45:16,-1198.0,369.0,326.0
15:45:16,-1198.0,369.0,326.0
15:45:16,-1198.0,369.0,326.0
15:45:16,-1198.0,369.0,326.0
15:45:16,-1228.0,369.0,326.0
15:45:16,-1228.0,369.0,326.0
15:45:16,-1228.0,369.0,326.0
15:45:16,-1228.0,369.0,326.0
15:45:16,-1232.0,368.0,326.0
15:45:16,-1232.0,368.0,326.0
15:45:16,-1232.0,368.0,326.0
15:45:16,-1232.0,368.0,326.0
15:45:16,-1220.0,368.0,326.0
15:45:16,-1220.0,368.0,326.0
15:45:16,-1220.0,368.0,326.0
15:45:16,-1220.0,368.0,326.0
15:45:16,-1116.0,367.0,326.0
15:45:16,-1116.0,367.0,326.0
15:45:16,-1116.0,367.0,326.0
15:45:16,-1116.0,367.0,326.0
15:45:16,-1186.0,367.0,326.0
15:45:16,-1186.0,367.0,326.0
15:45:16,-1186.0,367.0,326.0
15:45:16,-1186.0,367.0,326.0
15:45:16,-1208.0,369.0,326.0
15:45:16,-1208.0,369.0,326.0
15:45:16,-1208.0,369.0,326.0
15:45:16,-1208.0,369.0,326.0
15:45:16,-1056.0,368.0,326.0
15:45:16,-1056.0,368.0,326.0
15:45:16,-1056.0,368.0,326.0
15:45:16,-1056.0,368.0,326.0
15:45:16,-1043.0,370.0,327.0
15:45:16,-1043.0,370.0,327.0
15:45:16,-1043.0,370.0,327.0
15:45:16,-1043.0,370.0,327.0
15:45:16,-1094.0,368.0,327.0
15:45:16,-1094.0,368.0,327.0
15:45:16,-1094.0,368.0,327.0
15:45:16,-1094.0,368.0,327.0
15:45:16,-1111.0,368.0,327.0
15:45:16,-1111.0,368.0,327.0
15:45:16,-1111.0,368.0,327.0
15:45:16,-1111.0,368.0,327.0
15:45:16,-1178.0,369.0,327.0
15:45:16,-1178.0,369.0,327.0
15:45:16,-1178.0,369.0,327.0
15:45:16,-1178.0,369.0,327.0
15:45:16,-1087.0,369.0,327.0
15:45:16,-1087.0,369.0,327.0
15:45:16,-1087.0,369.0,327.0
15:45:16,-1087.0,369.0,327.0
15:45:16,-1047.0,370.0,328.0
15:45:16,-1047.0,370.0,328.0
15:45:16,-1047.0,370.0,328.0
15:45:16,-1047.0,370.0,328.0
15:45:16,-1000.0,371.0,325.0
15:45:16,-1000.0,371.0,325.0
15:45:16,-1000.0,371.0,325.0
15:45:16,-1000.0,371.0,325.0
15:45:16,-905.0,368.0,326.0
15:45:16,-905.0,368.0,326.0
15:45:16,-905.0,368.0,326.0
15:45:16,-905.0,368.0,326.0
15:45:16,-1007.0,369.0,327.0
15:45:16,-1007.0,369.0,327.0
15:45:16,-1007.0,369.0,327.0
15:45:16,-1007.0,369.0,327.0
15:45:16,-1051.0,369.0,327.0
15:45:16,-1051.0,369.0,327.0
15:45:16,-1051.0,369.0,327.0
15:45:16,-1051.0,369.0,327.0
15:45:16,-993.0,369.0,326.0
15:45:16,-993.0,369.0,326.0
15:45:16,-993.0,369.0,326.0
15:45:16,-993.0,369.0,326.0
15:45:16,-1004.0,368.0,327.0
15:45:16,-1004.0,368.0,327.0
15:45:16,-1004.0,368.0,327.0
15:45:16,-1004.0,368.0,327.0
15:45:16,-397.0,368.0,327.0
15:45:16,-397.0,368.0,327.0
15:45:16,-397.0,368.0,327.0
15:45:16,-397.0,368.0,327.0
15:45:16,-1316.0,369.0,327.0
15:45:16,-1316.0,369.0,327.0
15:45:16,-1316.0,369.0,327.0
15:45:16,-1316.0,369.0,327.0
15:45:16,-985.0,368.0,326.0
15:45:16,-985.0,368.0,326.0
15:45:16,-985.0,368.0,326.0
15:45:16,-985.0,368.0,326.0
15:45:16,-901.0,369.0,327.0
15:45:16,-901.0,369.0,327.0
15:45:16,-901.0,369.0,327.0
15:45:16,-901.0,369.0,327.0
15:45:16,-880.0,369.0,326.0
15:45:16,-880.0,369.0,326.0
15:45:16,-880.0,369.0,326.0
15:45:16,-880.0,369.0,326.0
15:45:16,-929.0,368.0,328.0
15:45:16,-929.0,368.0,328.0
15:45:16,-929.0,368.0,328.0
15:45:16,-929.0,368.0,328.0
15:45:16,-821.0,368.0,328.0
15:45:16,-821.0,368.0,328.0
15:45:16,-821.0,368.0,328.0
15:45:16,-821.0,368.0,328.0
15:45:16,-786.0,370.0,328.0
15:45:16,-786.0,370.0,328.0
15:45:16,-786.0,370.0,328.0
15:45:16,-786.0,370.0,328.0
15:45:16,-674.0,369.0,327.0
15:45:16,-674.0,369.0,327.0
15:45:16,-674.0,369.0,327.0
15:45:16,-674.0,369.0,327.0
15:45:16,-681.0,369.0,326.0
15:45:16,-681.0,369.0,326.0
15:45:16,-681.0,369.0,326.0
15:45:16,-681.0,369.0,326.0
15:45:16,-702.0,368.0,327.0
15:45:16,-702.0,368.0,327.0
15:45:16,-702.0,368.0,327.0
15:45:16,-702.0,368.0,327.0
15:45:16,-730.0,370.0,327.0
15:45:16,-730.0,370.0,327.0
15:45:16,-730.0,370.0,327.0
15:45:16,-730.0,370.0,327.0
15:45:16,-870.0,368.0,328.0
15:45:16,-870.0,368.0,328.0
15:45:16,-870.0,368.0,328.0
15:45:16,-870.0,368.0,328.0
15:45:16,-900.0,369.0,327.0
15:45:16,-900.0,369.0,327.0
15:45:16,-900.0,369.0,327.0
15:45:16,-900.0,369.0,327.0
15:45:16,-890.0,368.0,328.0
15:45:16,-890.0,368.0,328.0
15:45:16,-890.0,368.0,328.0
15:45:16,-890.0,368.0,328.0
15:45:16,-864.0,369.0,326.0
15:45:16,-864.0,369.0,326.0
15:45:16,-864.0,369.0,326.0
15:45:16,-864.0,369.0,326.0
15:45:16,-877.0,368.0,326.0
15:45:16,-877.0,368.0,326.0
15:45:16,-877.0,368.0,326.0
15:45:16,-877.0,368.0,326.0
15:45:17,-863.0,369.0,326.0
15:45:17,-863.0,369.0,326.0
15:45:17,-863.0,369.0,326.0
15:45:17,-863.0,369.0,326.0
15:45:17,-789.0,370.0,325.0
15:45:17,-789.0,370.0,325.0
15:45:17,-789.0,370.0,325.0
15:45:17,-789.0,370.0,325.0
15:45:17,-802.0,368.0,328.0
15:45:17,-802.0,368.0,328.0
15:45:17,-802.0,368.0,328.0
15:45:17,-802.0,368.0,328.0
15:45:17,-783.0,368.0,327.0
15:45:17,-783.0,368.0,327.0
15:45:17,-783.0,368.0,327.0
15:45:17,-783.0,368.0,327.0
15:45:17,-772.0,368.0,327.0
15:45:17,-772.0,368.0,327.0
15:45:17,-772.0,368.0,327.0
15:45:17,-772.0,368.0,327.0
15:45:17,-766.0,370.0,327.0
15:45:17,-766.0,370.0,327.0
15:45:17,-766.0,370.0,327.0
15:45:17,-766.0,370.0,327.0
15:45:17,-783.0,368.0,328.0
15:45:17,-783.0,368.0,328.0
15:45:17,-783.0,368.0,328.0
15:45:17,-783.0,368.0,328.0
15:45:17,-821.0,368.0,327.0
15:45:17,-821.0,368.0,327.0
15:45:17,-821.0,368.0,327.0
15:45:17,-821.0,368.0,327.0
15:45:17,-768.0,368.0,327.0
15:45:17,-768.0,368.0,327.0
15:45:17,-768.0,368.0,327.0
15:45:17,-768.0,368.0,327.0
15:45:17,-727.0,368.0,325.0
15:45:17,-727.0,368.0,325.0
15:45:17,-727.0,368.0,325.0
15:45:17,-727.0,368.0,325.0
15:45:17,-724.0,368.0,326.0
15:45:17,-724.0,368.0,326.0
15:45:17,-724.0,368.0,326.0
15:45:17,-724.0,368.0,326.0
15:45:17,-692.0,368.0,326.0
15:45:17,-692.0,368.0,326.0
15:45:17,-692.0,368.0,326.0
15:45:17,-692.0,368.0,326.0
15:45:17,-570.0,367.0,326.0
15:45:17,-570.0,367.0,326.0
15:45:17,-570.0,367.0,326.0
15:45:17,-570.0,367.0,326.0
15:45:17,-684.0,369.0,325.0
15:45:17,-684.0,369.0,325.0
15:45:17,-684.0,369.0,325.0
15:45:17,-684.0,369.0,325.0
15:45:17,-697.0,369.0,326.0
15:45:17,-697.0,369.0,326.0
15:45:17,-697.0,369.0,326.0
15:45:17,-697.0,369.0,326.0
15:45:17,-685.0,369.0,326.0
15:45:17,-685.0,369.0,326.0
15:45:17,-685.0,369.0,326.0
15:45:17,-685.0,369.0,326.0
15:45:17,-719.0,368.0,326.0
15:45:17,-719.0,368.0,326.0
15:45:17,-719.0,368.0,326.0
15:45:17,-719.0,368.0,326.0
15:45:17,-136.0,367.0,326.0
15:45:17,-136.0,367.0,326.0
15:45:17,-136.0,367.0,326.0
15:45:17,-136.0,367.0,326.0
15:45:17,-1052.0,367.0,326.0
15:45:17,-1052.0,367.0,326.0
15:45:17,-1052.0,367.0,326.0
15:45:17,-1052.0,367.0,326.0
15:45:17,-726.0,368.0,327.0
15:45:17,-726.0,368.0,327.0
15:45:17,-726.0,368.0,327.0
15:45:17,-726.0,368.0,327.0
15:45:17,-723.0,368.0,326.0
15:45:17,-723.0,368.0,326.0
15:45:17,-723.0,368.0,326.0
15:45:17,-723.0,368.0,326.0
15:45:17,-699.0,368.0,326.0
15:45:17,-699.0,368.0,326.0
15:45:17,-699.0,368.0,326.0
15:45:17,-699.0,368.0,326.0
15:45:17,-705.0,369.0,326.0
15:45:17,-705.0,369.0,326.0
15:45:17,-705.0,369.0,326.0
15:45:17,-705.0,369.0,326.0
15:45:17,-695.0,368.0,326.0
15:45:17,-695.0,368.0,326.0
15:45:17,-695.0,368.0,326.0
15:45:17,-695.0,368.0,326.0
15:45:17,-706.0,367.0,326.0
15:45:17,-706.0,367.0,326.0
15:45:17,-706.0,367.0,326.0
15:45:17,-706.0,367.0,326.0
15:45:17,-608.0,369.0,327.0
15:45:17,-608.0,369.0,327.0
15:45:17,-608.0,369.0,327.0
15:45:17,-608.0,369.0,327.0
15:45:17,-589.0,368.0,326.0
15:45:17,-589.0,368.0,326.0
15:45:17,-589.0,368.0,326.0
15:45:17,-589.0,368.0,326.0
15:45:17,-618.0,368.0,327.0
15:45:17,-618.0,368.0,327.0
15:45:17,-618.0,368.0,327.0
15:45:17,-618.0,368.0,327.0
15:45:17,-718.0,369.0,328.0
15:45:17,-718.0,369.0,328.0
15:45:17,-718.0,369.0,328.0
15:45:17,-718.0,369.0,328.0
15:45:17,-766.0,368.0,326.0
15:45:17,-766.0,368.0,326.0
15:45:17,-766.0,368.0,326.0
15:45:17,-766.0,368.0,326.0
15:45:17,-864.0,369.0,326.0
15:45:17,-864.0,369.0,326.0
15:45:17,-864.0,369.0,326.0
15:45:17,-864.0,369.0,326.0
15:45:17,-849.0,368.0,328.0
15:45:17,-849.0,368.0,328.0
15:45:17,-849.0,368.0,328.0
15:45:17,-849.0,368.0,328.0
15:45:17,-802.0,367.0,328.0
15:45:17,-802.0,367.0,328.0
15:45:17,-802.0,367.0,328.0
15:45:17,-802.0,367.0,328.0
15:45:17,-848.0,369.0,327.0
15:45:17,-848.0,369.0,327.0
15:45:17,-848.0,369.0,327.0
15:45:17,-848.0,369.0,327.0
15:45:17,-888.0,368.0,326.0
15:45:17,-888.0,368.0,326.0
15:45:17,-888.0,368.0,326.0
15:45:17,-888.0,368.0,326.0
15:45:17,-858.0,369.0,327.0
15:45:17,-858.0,369.0,327.0
15:45:17,-858.0,369.0,327.0
15:45:17,-858.0,369.0,327.0
15:45:17,-821.0,369.0,327.0
15:45:17,-821.0,369.0,327.0
15:45:17,-821.0,369.0,327.0
15:45:17,-821.0,369.0,327.0
15:45:17,-900.0,367.0,328.0
15:45:17,-900.0,367.0,328.0
15:45:17,-900.0,367.0,328.0
15:45:17,-900.0,367.0,328.0
15:45:17,-924.0,368.0,327.0
15:45:17,-924.0,368.0,327.0
15:45:17,-924.0,368.0,327.0
15:45:17,-924.0,368.0,327.0
15:45:17,-912.0,368.0,326.0
15:45:17,-912.0,368.0,326.0
15:45:17,-912.0,368.0,326.0
15:45:17,-912.0,368.0,326.0
15:45:17,-928.0,368.0,327.0
15:45:17,-928.0,368.0,327.0
15:45:17,-928.0,368.0,327.0
15:45:17,-928.0,368.0,327.0
15:45:17,-936.0,369.0,327.0
15:45:17,-936.0,369.0,327.0
15:45:17,-936.0,369.0,327.0
15:45:17,-936.0,369.0,327.0
15:45:17,-921.0,368.0,328.0
15:45:17,-921.0,368.0,328.0
15:45:17,-921.0,368.0,328.0
15:45:17,-921.0,368.0,328.0
15:45:17,-929.0,369.0,327.0
15:45:17,-929.0,369.0,327.0
15:45:17,-929.0,369.0,327.0
15:45:17,-929.0,369.0,327.0
15:45:17,-879.0,369.0,326.0
15:45:17,-879.0,369.0,326.0
15:45:17,-879.0,369.0,326.0
15:45:17,-879.0,369.0,326.0
15:45:17,-951.0,370.0,326.0
15:45:17,-951.0,370.0,326.0
15:45:17,-951.0,370.0,326.0
15:45:17,-951.0,370.0,326.0
15:45:17,-840.0,369.0,326.0
15:45:17,-840.0,369.0,326.0
15:45:17,-840.0,369.0,326.0
15:45:17,-840.0,369.0,326.0
15:45:17,-940.0,369.0,326.0
15:45:17,-940.0,369.0,326.0
15:45:17,-940.0,369.0,326.0
15:45:17,-940.0,369.0,326.0
15:45:17,-1016.0,369.0,327.0
15:45:17,-1016.0,369.0,327.0
15:45:17,-1016.0,369.0,327.0
15:45:17,-1016.0,369.0,327.0
15:45:17,-1011.0,369.0,327.0
15:45:17,-1011.0,369.0,327.0
15:45:17,-1011.0,369.0,327.0
15:45:17,-1011.0,369.0,327.0
15:45:18,-1016.0,369.0,327.0
15:45:18,-1016.0,369.0,327.0
15:45:18,-1016.0,369.0,327.0
15:45:18,-1016.0,369.0,327.0
15:45:18,-388.0,369.0,326.0
15:45:18,-388.0,369.0,326.0
15:45:18,-388.0,369.0,326.0
15:45:18,-388.0,369.0,326.0
15:45:18,-1464.0,368.0,327.0
15:45:18,-1464.0,368.0,327.0
15:45:18,-1464.0,368.0,327.0
15:45:18,-1464.0,368.0,327.0
15:45:18,-1099.0,368.0,328.0
15:45:18,-1099.0,368.0,328.0
15:45:18,-1099.0,368.0,328.0
15:45:18,-1099.0,368.0,328.0
15:45:18,-994.0,368.0,328.0
15:45:18,-994.0,368.0,328.0
15:45:18,-994.0,368.0,328.0
15:45:18,-994.0,368.0,328.0
15:45:18,-1028.0,369.0,329.0
15:45:18,-1028.0,369.0,329.0
15:45:18,-1028.0,369.0,329.0
15:45:18,-1028.0,369.0,329.0
15:45:18,-988.0,370.0,327.0
15:45:18,-988.0,370.0,327.0
15:45:18,-988.0,370.0,327.0
15:45:18,-988.0,370.0,327.0
15:45:18,-977.0,369.0,327.0
15:45:18,-977.0,369.0,327.0
15:45:18,-977.0,369.0,327.0
15:45:18,-977.0,369.0,327.0
15:45:18,-963.0,369.0,328.0
15:45:18,-963.0,369.0,328.0
15:45:18,-963.0,369.0,328.0
15:45:18,-963.0,369.0,328.0
15:45:18,-897.0,369.0,327.0
15:45:18,-897.0,369.0,327.0
15:45:18,-897.0,369.0,327.0
15:45:18,-897.0,369.0,327.0
15:45:18,-897.0,370.0,327.0
15:45:18,-897.0,370.0,327.0
15:45:18,-897.0,370.0,327.0
15:45:18,-897.0,370.0,327.0
15:45:18,-955.0,370.0,327.0
15:45:18,-955.0,370.0,327.0
15:45:18,-955.0,370.0,327.0
15:45:18,-955.0,370.0,327.0
15:45:18,-935.0,369.0,327.0
15:45:18,-935.0,369.0,327.0
15:45:18,-935.0,369.0,327.0
15:45:18,-935.0,369.0,327.0
15:45:18,-1103.0,368.0,327.0
15:45:18,-1103.0,368.0,327.0
15:45:18,-1103.0,368.0,327.0
15:45:18,-1103.0,368.0,327.0
15:45:18,-1178.0,369.0,327.0
15:45:18,-1178.0,369.0,327.0
15:45:18,-1178.0,369.0,327.0
15:45:18,-1178.0,369.0,327.0
15:45:18,-1172.0,368.0,327.0
15:45:18,-1172.0,368.0,327.0
15:45:18,-1172.0,368.0,327.0
15:45:18,-1172.0,368.0,327.0
15:45:18,-1207.0,368.0,326.0
15:45:18,-1207.0,368.0,326.0
15:45:18,-1207.0,368.0,326.0
15:45:18,-1207.0,368.0,326.0
15:45:18,-1216.0,370.0,326.0
15:45:18,-1216.0,370.0,326.0
15:45:18,-1216.0,370.0,326.0
15:45:18,-1216.0,370.0,326.0
15:45:18,-1205.0,370.0,326.0
15:45:18,-1205.0,370.0,326.0
15:45:18,-1205.0,370.0,326.0
15:45:18,-1205.0,370.0,326.0
15:45:18,-1199.0,369.0,327.0
15:45:18,-1199.0,369.0,327.0
15:45:18,-1199.0,369.0,327.0
15:45:18,-1199.0,369.0,327.0
15:45:18,-1213.0,369.0,326.0
15:45:18,-1213.0,369.0,326.0
15:45:18,-1213.0,369.0,326.0
15:45:18,-1213.0,369.0,326.0
15:45:18,-1278.0,368.0,326.0
15:45:18,-1278.0,368.0,326.0
15:45:18,-1278.0,368.0,326.0
15:45:18,-1278.0,368.0,326.0
15:45:18,-1189.0,369.0,326.0
15:45:18,-1189.0,369.0,326.0
15:45:18,-1189.0,369.0,326.0
15:45:18,-1189.0,369.0,326.0
15:45:18,-1158.0,369.0,326.0
15:45:18,-1158.0,369.0,326.0
15:45:18,-1158.0,369.0,326.0
15:45:18,-1158.0,369.0,326.0
15:45:18,-1194.0,369.0,326.0
15:45:18,-1194.0,369.0,326.0
15:45:18,-1194.0,369.0,326.0
15:45:18,-1194.0,369.0,326.0
15:45:18,-1245.0,369.0,327.0
15:45:18,-1245.0,369.0,327.0
15:45:18,-1245.0,369.0,327.0
15:45:18,-1245.0,369.0,327.0
15:45:18,-1252.0,368.0,327.0
15:45:18,-1252.0,368.0,327.0
15:45:18,-1252.0,368.0,327.0
15:45:18,-1252.0,368.0,327.0
15:45:18,-1218.0,368.0,327.0
15:45:18,-1218.0,368.0,327.0
15:45:18,-1218.0,368.0,327.0
15:45:18,-1218.0,368.0,327.0
15:45:18,-1289.0,368.0,327.0
15:45:18,-1289.0,368.0,327.0
15:45:18,-1289.0,368.0,327.0
15:45:18,-1289.0,368.0,327.0
15:45:18,-1182.0,368.0,326.0
15:45:18,-1182.0,368.0,326.0
15:45:18,-1182.0,368.0,326.0
15:45:18,-1182.0,368.0,326.0
15:45:18,-1278.0,367.0,328.0
15:45:18,-1278.0,367.0,328.0
15:45:18,-1278.0,367.0,328.0
15:45:18,-1278.0,367.0,328.0
15:45:18,-1267.0,369.0,326.0
15:45:18,-1267.0,369.0,326.0
15:45:18,-1267.0,369.0,326.0
15:45:18,-1267.0,369.0,326.0
15:45:18,-1336.0,369.0,327.0
15:45:18,-1336.0,369.0,327.0
15:45:18,-1336.0,369.0,327.0
15:45:18,-1336.0,369.0,327.0
15:45:18,-1321.0,369.0,327.0
15:45:18,-1321.0,369.0,327.0
15:45:18,-1321.0,369.0,327.0
15:45:18,-1321.0,369.0,327.0
15:45:18,-975.0,369.0,328.0
15:45:18,-975.0,369.0,328.0
15:45:18,-975.0,369.0,328.0
15:45:18,-975.0,369.0,328.0
15:45:18,-1483.0,368.0,328.0
15:45:18,-1483.0,368.0,328.0
15:45:18,-1483.0,368.0,328.0
15:45:18,-1483.0,368.0,328.0
15:45:18,-1575.0,368.0,327.0
15:45:18,-1575.0,368.0,327.0
15:45:18,-1575.0,368.0,327.0
15:45:18,-1575.0,368.0,327.0
15:45:18,-1351.0,368.0,326.0
15:45:18,-1351.0,368.0,326.0
15:45:18,-1351.0,368.0,326.0
15:45:18,-1351.0,368.0,326.0
15:45:18,-1305.0,368.0,325.0
15:45:18,-1305.0,368.0,325.0
15:45:18,-1305.0,368.0,325.0
15:45:18,-1305.0,368.0,325.0
15:45:18,-1319.0,368.0,327.0
15:45:18,-1319.0,368.0,327.0
15:45:18,-1319.0,368.0,327.0
15:45:18,-1319.0,368.0,327.0
15:45:18,-1306.0,367.0,328.0
15:45:18,-1306.0,367.0,328.0
15:45:18,-1306.0,367.0,328.0
15:45:18,-1306.0,367.0,328.0
15:45:18,-1253.0,369.0,327.0
15:45:18,-1253.0,369.0,327.0
15:45:18,-1253.0,369.0,327.0
15:45:18,-1253.0,369.0,327.0
15:45:18,-1239.0,369.0,327.0
15:45:18,-1239.0,369.0,327.0
15:45:18,-1239.0,369.0,327.0
15:45:18,-1239.0,369.0,327.0
15:45:18,-1170.0,368.0,327.0
15:45:18,-1170.0,368.0,327.0
15:45:18,-1170.0,368.0,327.0
15:45:18,-1170.0,368.0,327.0
15:45:18,-1200.0,368.0,327.0
15:45:18,-1200.0,368.0,327.0
15:45:18,-1200.0,368.0,327.0
15:45:18,-1200.0,368.0,327.0
15:45:18,-1270.0,369.0,327.0
15:45:18,-1270.0,369.0,327.0
15:45:18,-1270.0,369.0,327.0
15:45:18,-1270.0,369.0,327.0
15:45:18,-1331.0,369.0,327.0
15:45:18,-1331.0,369.0,327.0
15:45:18,-1331.0,369.0,327.0
15:45:18,-1331.0,369.0,327.0
15:45:18,-1421.0,369.0,326.0
15:45:18,-1421.0,369.0,326.0
15:45:18,-1421.0,369.0,326.0
15:45:18,-1421.0,369.0,326.0
15:45:18,-1460.0,369.0,326.0
15:45:18,-1460.0,369.0,326.0
15:45:18,-1460.0,369.0,326.0
15:45:18,-1460.0,369.0,326.0
15:45:18,-1476.0,369.0,327.0
15:45:18,-1476.0,369.0,327.0
15:45:18,-1476.0,369.0,327.0
15:45:18,-1476.0,369.0,327.0
15:45:18,-1460.0,369.0,327.0
15:45:19,-1460.0,369.0,327.0
15:45:19,-1460.0,369.0,327.0
15:45:19,-1460.0,369.0,327.0
15:45:19,-1452.0,367.0,326.0
15:45:19,-1452.0,367.0,326.0
15:45:19,-1452.0,367.0,326.0
15:45:19,-1452.0,367.0,326.0
15:45:19,-1400.0,369.0,328.0
15:45:19,-1400.0,369.0,328.0
15:45:19,-1400.0,369.0,328.0
15:45:19,-1400.0,369.0,328.0
15:45:19,-1439.0,368.0,328.0
15:45:19,-1439.0,368.0,328.0
15:45:19,-1439.0,368.0,328.0
15:45:19,-1439.0,368.0,328.0
15:45:19,-1438.0,368.0,326.0
15:45:19,-1438.0,368.0,326.0
15:45:19,-1438.0,368.0,326.0
15:45:19,-1438.0,368.0,326.0
15:45:19,-1467.0,368.0,326.0
15:45:19,-1467.0,368.0,326.0
15:45:19,-1467.0,368.0,326.0
15:45:19,-1467.0,368.0,326.0
15:45:19,-1454.0,367.0,326.0
15:45:19,-1454.0,367.0,326.0
15:45:19,-1454.0,367.0,326.0
15:45:19,-1454.0,367.0,326.0
15:45:19,-1455.0,367.0,326.0
15:45:19,-1455.0,367.0,326.0
15:45:19,-1455.0,367.0,326.0
15:45:19,-1455.0,367.0,326.0
15:45:19,-1422.0,367.0,326.0
15:45:19,-1422.0,367.0,326.0
15:45:19,-1422.0,367.0,326.0
15:45:19,-1422.0,367.0,326.0
15:45:19,-1482.0,370.0,325.0
15:45:19,-1482.0,370.0,325.0
15:45:19,-1482.0,370.0,325.0
15:45:19,-1482.0,370.0,325.0
15:45:19,-1444.0,368.0,325.0
15:45:19,-1444.0,368.0,325.0
15:45:19,-1444.0,368.0,325.0
15:45:19,-1444.0,368.0,325.0
15:45:19,-1391.0,369.0,326.0
15:45:19,-1391.0,369.0,326.0
15:45:19,-1391.0,369.0,326.0
15:45:19,-1391.0,369.0,326.0
15:45:19,-1441.0,368.0,326.0
15:45:19,-1441.0,368.0,326.0
15:45:19,-1441.0,368.0,326.0
15:45:19,-1441.0,368.0,326.0
15:45:19,-1396.0,368.0,326.0
15:45:19,-1396.0,368.0,326.0
15:45:19,-1396.0,368.0,326.0
15:45:19,-1396.0,368.0,326.0
15:45:19,-1374.0,366.0,326.0
15:45:19,-1374.0,366.0,326.0
15:45:19,-1374.0,366.0,326.0
15:45:19,-1374.0,366.0,326.0
15:45:19,-1372.0,367.0,326.0
15:45:19,-1372.0,367.0,326.0
15:45:19,-1372.0,367.0,326.0
15:45:19,-1372.0,367.0,326.0
15:45:19,-1466.0,370.0,326.0
15:45:19,-1466.0,370.0,326.0
15:45:19,-1466.0,370.0,326.0
15:45:19,-1466.0,370.0,326.0
15:45:19,-1513.0,368.0,326.0
15:45:19,-1513.0,368.0,326.0
15:45:19,-1513.0,368.0,326.0
15:45:19,-1513.0,368.0,326.0
15:45:19,-1118.0,369.0,327.0
15:45:19,-1118.0,369.0,327.0
15:45:19,-1118.0,369.0,327.0
15:45:19,-1118.0,369.0,327.0
15:45:19,-1525.0,369.0,328.0
15:45:19,-1525.0,369.0,328.0
15:45:19,-1525.0,369.0,328.0
15:45:19,-1525.0,369.0,328.0
15:45:19,-1682.0,370.0,328.0
15:45:19,-1682.0,370.0,328.0
15:45:19,-1682.0,370.0,328.0
15:45:19,-1682.0,370.0,328.0
15:45:19,-1436.0,369.0,328.0
15:45:19,-1436.0,369.0,328.0
15:45:19,-1436.0,369.0,328.0
15:45:19,-1436.0,369.0,328.0
15:45:19,-1409.0,369.0,326.0
15:45:19,-1409.0,369.0,326.0
15:45:19,-1409.0,369.0,326.0
15:45:19,-1409.0,369.0,326.0
15:45:19,-1414.0,369.0,326.0
15:45:19,-1414.0,369.0,326.0
15:45:19,-1414.0,369.0,326.0
15:45:19,-1414.0,369.0,326.0
15:45:19,-1410.0,369.0,327.0
15:45:19,-1410.0,369.0,327.0
15:45:19,-1410.0,369.0,327.0
15:45:19,-1410.0,369.0,327.0
15:45:19,-1375.0,370.0,326.0
15:45:19,-1375.0,370.0,326.0
15:45:19,-1375.0,370.0,326.0
15:45:19,-1375.0,370.0,326.0
15:45:19,-1314.0,369.0,326.0
15:45:19,-1314.0,369.0,326.0
15:45:19,-1314.0,369.0,326.0
15:45:19,-1314.0,369.0,326.0
15:45:19,-1214.0,369.0,327.0
15:45:19,-1214.0,369.0,327.0
15:45:19,-1214.0,369.0,327.0
15:45:19,-1214.0,369.0,327.0
15:45:19,-1244.0,369.0,327.0
15:45:19,-1244.0,369.0,327.0
15:45:19,-1244.0,369.0,327.0
15:45:19,-1244.0,369.0,327.0
15:45:19,-1242.0,368.0,327.0
15:45:19,-1242.0,368.0,327.0
15:45:19,-1242.0,368.0,327.0
15:45:19,-1242.0,368.0,327.0
15:45:19,-1339.0,368.0,327.0
15:45:19,-1339.0,368.0,327.0
15:45:19,-1339.0,368.0,327.0
15:45:19,-1339.0,368.0,327.0
15:45:19,-1447.0,369.0,326.0
15:45:19,-1447.0,369.0,326.0
15:45:19,-1447.0,369.0,326.0
15:45:19,-1447.0,369.0,326.0
15:45:19,-1471.0,369.0,326.0
15:45:19,-1471.0,369.0,326.0
15:45:19,-1471.0,369.0,326.0
15:45:19,-1471.0,369.0,326.0
15:45:19,-1517.0,369.0,328.0
15:45:19,-1517.0,369.0,328.0
15:45:19,-1517.0,369.0,328.0
15:45:19,-1517.0,369.0,328.0
15:45:19,-1441.0,368.0,328.0
15:45:19,-1441.0,368.0,328.0
15:45:19,-1441.0,368.0,328.0
15:45:19,-1441.0,368.0,328.0
15:45:19,-1451.0,368.0,327.0
15:45:19,-1451.0,368.0,327.0
15:45:19,-1451.0,368.0,327.0
15:45:19,-1451.0,368.0,327.0
15:45:19,-1391.0,369.0,327.0
15:45:19,-1391.0,369.0,327.0
15:45:19,-1391.0,369.0,327.0
15:45:19,-1391.0,369.0,327.0
15:45:19,-1454.0,369.0,327.0
15:45:19,-1454.0,369.0,327.0
15:45:19,-1454.0,369.0,327.0
15:45:19,-1454.0,369.0,327.0
15:45:19,-1378.0,368.0,328.0
15:45:19,-1378.0,368.0,328.0
15:45:19,-1378.0,368.0,328.0
15:45:19,-1378.0,368.0,328.0
15:45:19,-1420.0,367.0,326.0
15:45:19,-1420.0,367.0,326.0
15:45:19,-1420.0,367.0,326.0
15:45:19,-1420.0,367.0,326.0
15:45:19,-1424.0,368.0,326.0
15:45:19,-1424.0,368.0,326.0
15:45:19,-1424.0,368.0,326.0
15:45:19,-1424.0,368.0,326.0
15:45:19,-1383.0,368.0,325.0
15:45:19,-1383.0,368.0,325.0
15:45:19,-1383.0,368.0,325.0
15:45:19,-1383.0,368.0,325.0
15:45:19,-1393.0,368.0,326.0
15:45:19,-1393.0,368.0,326.0
15:45:19,-1393.0,368.0,326.0
15:45:19,-1393.0,368.0,326.0
15:45:19,-1347.0,368.0,327.0
15:45:19,-1347.0,368.0,327.0
15:45:19,-1347.0,368.0,327.0
15:45:19,-1347.0,368.0,327.0
15:45:19,-1358.0,368.0,326.0
15:45:19,-1358.0,368.0,326.0
15:45:19,-1358.0,368.0,326.0
15:45:19,-1358.0,368.0,326.0
15:45:19,-1330.0,368.0,326.0
15:45:19,-1330.0,368.0,326.0
15:45:19,-1330.0,368.0,326.0
15:45:19,-1330.0,368.0,326.0
15:45:19,-1272.0,367.0,325.0
15:45:19,-1272.0,367.0,325.0
15:45:19,-1272.0,367.0,325.0
15:45:19,-1272.0,367.0,325.0
15:45:19,-1198.0,368.0,325.0
15:45:19,-1198.0,368.0,325.0
15:45:19,-1198.0,368.0,325.0
15:45:19,-1198.0,368.0,325.0
15:45:19,-1341.0,368.0,325.0
15:45:19,-1341.0,368.0,325.0
15:45:19,-1341.0,368.0,325.0
15:45:19,-1341.0,368.0,325.0
15:45:19,-1334.0,369.0,325.0
15:45:19,-1334.0,369.0,325.0
15:45:19,-1334.0,369.0,325.0
15:45:19,-1334.0,369.0,325.0
15:45:19,-1343.0,368.0,327.0
15:45:19,-1343.0,368.0,327.0
15:45:20,-1343.0,368.0,327.0
15:45:20,-1343.0,368.0,327.0
15:45:20,-1333.0,368.0,326.0
15:45:20,-1333.0,368.0,326.0
15:45:20,-1333.0,368.0,326.0
15:45:20,-1333.0,368.0,326.0
15:45:20,-799.0,368.0,326.0
15:45:20,-799.0,368.0,326.0
15:45:20,-799.0,368.0,326.0
15:45:20,-799.0,368.0,326.0
15:45:20,-1700.0,368.0,326.0
15:45:20,-1700.0,368.0,326.0
15:45:20,-1700.0,368.0,326.0
15:45:20,-1700.0,368.0,326.0
15:45:20,-1416.0,368.0,328.0
15:45:20,-1416.0,368.0,328.0
15:45:20,-1416.0,368.0,328.0
15:45:20,-1416.0,368.0,328.0
15:45:20,-1272.0,368.0,326.0
15:45:20,-1272.0,368.0,326.0
15:45:20,-1272.0,368.0,326.0
15:45:20,-1272.0,368.0,326.0
15:45:20,-1254.0,368.0,327.0
15:45:20,-1254.0,368.0,327.0
15:45:20,-1254.0,368.0,327.0
15:45:20,-1254.0,368.0,327.0
15:45:20,-1220.0,370.0,325.0
15:45:20,-1220.0,370.0,325.0
15:45:20,-1220.0,370.0,325.0
15:45:20,-1220.0,370.0,325.0
15:45:20,-1167.0,368.0,326.0
15:45:20,-1167.0,368.0,326.0
15:45:20,-1167.0,368.0,326.0
15:45:20,-1167.0,368.0,326.0
15:45:20,-1135.0,368.0,326.0
15:45:20,-1135.0,368.0,326.0
15:45:20,-1135.0,368.0,326.0
15:45:20,-1135.0,368.0,326.0
15:45:20,-1096.0,369.0,327.0
15:45:20,-1096.0,369.0,327.0
15:45:20,-1096.0,369.0,327.0
15:45:20,-1096.0,369.0,327.0
15:45:20,-1047.0,369.0,325.0
15:45:20,-1047.0,369.0,325.0
15:45:20,-1047.0,369.0,325.0
15:45:20,-1047.0,369.0,325.0
15:45:20,-1022.0,370.0,325.0
15:45:20,-1022.0,370.0,325.0
15:45:20,-1022.0,370.0,325.0
15:45:20,-1022.0,370.0,325.0
15:45:20,-1064.0,368.0,327.0
15:45:20,-1064.0,368.0,327.0
15:45:20,-1064.0,368.0,327.0
15:45:20,-1064.0,368.0,327.0
15:45:20,-1119.0,369.0,328.0
15:45:20,-1119.0,369.0,328.0
15:45:20,-1119.0,369.0,328.0
15:45:20,-1119.0,369.0,328.0
15:45:20,-1181.0,370.0,327.0
15:45:20,-1181.0,370.0,327.0
15:45:20,-1181.0,370.0,327.0
15:45:20,-1181.0,370.0,327.0
15:45:20,-1199.0,368.0,327.0
15:45:20,-1199.0,368.0,327.0
15:45:20,-1199.0,368.0,327.0
15:45:20,-1199.0,368.0,327.0
15:45:20,-1141.0,368.0,327.0
15:45:20,-1141.0,368.0,327.0
15:45:20,-1141.0,368.0,327.0
15:45:20,-1141.0,368.0,327.0
15:45:20,-1179.0,368.0,327.0
15:45:20,-1179.0,368.0,327.0
15:45:20,-1179.0,368.0,327.0
15:45:20,-1179.0,368.0,327.0
15:45:20,-1136.0,370.0,327.0
15:45:20,-1136.0,370.0,327.0
15:45:20,-1136.0,370.0,327.0
15:45:20,-1136.0,370.0,327.0
15:45:20,-1116.0,368.0,327.0
15:45:20,-1116.0,368.0,327.0
15:45:20,-1116.0,368.0,327.0
15:45:20,-1116.0,368.0,327.0
15:45:20,-1079.0,368.0,326.0
15:45:20,-1079.0,368.0,326.0
15:45:20,-1079.0,368.0,326.0
15:45:20,-1079.0,368.0,326.0
15:45:20,-1118.0,368.0,327.0
15:45:20,-1118.0,368.0,327.0
15:45:20,-1118.0,368.0,327.0
15:45:20,-1118.0,368.0,327.0
15:45:20,-1140.0,370.0,325.0
15:45:20,-1140.0,370.0,325.0
15:45:20,-1140.0,370.0,325.0
15:45:20,-1140.0,370.0,325.0
15:45:20,-1089.0,369.0,327.0
15:45:20,-1089.0,369.0,327.0
15:45:20,-1089.0,369.0,327.0
15:45:20,-1089.0,369.0,327.0
15:45:20,-1074.0,368.0,325.0
15:45:20,-1074.0,368.0,325.0
15:45:20,-1074.0,368.0,325.0
15:45:20,-1074.0,368.0,325.0
15:45:20,-1111.0,369.0,326.0
15:45:20,-1111.0,369.0,326.0
15:45:20,-1111.0,369.0,326.0
15:45:20,-1111.0,369.0,326.0
15:45:20,-1074.0,369.0,325.0
15:45:20,-1074.0,369.0,325.0
15:45:20,-1074.0,369.0,325.0
15:45:20,-1074.0,369.0,325.0
15:45:20,-1054.0,368.0,326.0
15:45:20,-1054.0,368.0,326.0
15:45:20,-1054.0,368.0,326.0
15:45:20,-1054.0,368.0,326.0
15:45:20,-1047.0,368.0,326.0
15:45:20,-1047.0,368.0,326.0
15:45:20,-1047.0,368.0,326.0
15:45:20,-1047.0,368.0,326.0
15:45:20,-951.0,367.0,325.0
15:45:20,-951.0,367.0,325.0
15:45:20,-951.0,367.0,325.0
15:45:20,-951.0,367.0,325.0
15:45:20,-964.0,368.0,325.0
15:45:20,-964.0,368.0,325.0
15:45:20,-964.0,368.0,325.0
15:45:20,-964.0,368.0,325.0
15:45:20,-975.0,368.0,326.0
15:45:20,-975.0,368.0,326.0
15:45:20,-975.0,368.0,326.0
15:45:20,-975.0,368.0,326.0
15:45:20,-1080.0,368.0,325.0
15:45:20,-1080.0,368.0,325.0
15:45:20,-1080.0,368.0,325.0
15:45:20,-1080.0,368.0,325.0
15:45:20,-1050.0,368.0,326.0
15:45:20,-1050.0,368.0,326.0
15:45:20,-1050.0,368.0,326.0
15:45:20,-1050.0,368.0,326.0
15:45:20,-1037.0,369.0,327.0
15:45:20,-1037.0,369.0,327.0
15:45:20,-1037.0,369.0,327.0
15:45:20,-1037.0,369.0,327.0
15:45:20,-530.0,369.0,326.0
15:45:20,-530.0,369.0,326.0
15:45:20,-530.0,369.0,326.0
15:45:20,-530.0,369.0,326.0
15:45:20,-1452.0,368.0,327.0
15:45:20,-1452.0,368.0,327.0
15:45:20,-1452.0,368.0,327.0
15:45:20,-1452.0,368.0,327.0
15:45:20,-1161.0,368.0,329.0
15:45:20,-1161.0,368.0,329.0
15:45:20,-1161.0,368.0,329.0
15:45:20,-1161.0,368.0,329.0
15:45:20,-995.0,367.0,328.0
15:45:20,-995.0,367.0,328.0
15:45:20,-995.0,367.0,328.0
15:45:20,-995.0,367.0,328.0
15:45:20,-937.0,369.0,328.0
15:45:20,-937.0,369.0,328.0
15:45:20,-937.0,369.0,328.0
15:45:20,-937.0,369.0,328.0
15:45:20,-976.0,369.0,327.0
15:45:20,-976.0,369.0,327.0
15:45:20,-976.0,369.0,327.0
15:45:20,-976.0,369.0,327.0
15:45:20,-880.0,368.0,327.0
15:45:20,-880.0,368.0,327.0
15:45:20,-880.0,368.0,327.0
15:45:20,-880.0,368.0,327.0
15:45:20,-836.0,368.0,327.0
15:45:20,-836.0,368.0,327.0
15:45:20,-836.0,368.0,327.0
15:45:20,-836.0,368.0,327.0
15:45:20,-844.0,369.0,328.0
15:45:20,-844.0,369.0,328.0
15:45:20,-844.0,369.0,328.0
15:45:20,-844.0,369.0,328.0
15:45:20,-800.0,369.0,326.0
15:45:20,-800.0,369.0,326.0
15:45:20,-800.0,369.0,326.0
15:45:20,-800.0,369.0,326.0
15:45:20,-785.0,369.0,326.0
15:45:20,-785.0,369.0,326.0
15:45:20,-785.0,369.0,326.0
15:45:20,-785.0,369.0,326.0
15:45:20,-860.0,369.0,326.0
15:45:20,-860.0,369.0,326.0
15:45:20,-860.0,369.0,326.0
15:45:20,-860.0,369.0,326.0
15:45:20,-935.0,369.0,325.0
15:45:20,-935.0,369.0,325.0
15:45:20,-935.0,369.0,325.0
15:45:20,-935.0,369.0,325.0
15:45:20,-940.0,370.0,327.0
15:45:20,-940.0,370.0,327.0
15:45:20,-940.0,370.0,327.0
15:45:20,-940.0,370.0,327.0
15:45:20,-977.0,368.0,326.0
15:45:20,-977.0,368.0,326.0
15:45:20,-977.0,368.0,326.0
15:45:21,-977.0,368.0,326.0
15:45:21,-1017.0,368.0,327.0
15:45:21,-1017.0,368.0,327.0
15:45:21,-1017.0,368.0,327.0
15:45:21,-1017.0,368.0,327.0
15:45:21,-982.0,369.0,327.0
15:45:21,-982.0,369.0,327.0
15:45:21,-982.0,369.0,327.0
15:45:21,-982.0,369.0,327.0
15:45:21,-1018.0,369.0,326.0
15:45:21,-1018.0,369.0,326.0
15:45:21,-1018.0,369.0,326.0
15:45:21,-1018.0,369.0,326.0
15:45:21,-995.0,367.0,326.0
15:45:21,-995.0,367.0,326.0
15:45:21,-995.0,367.0,326.0
15:45:21,-995.0,367.0,326.0
15:45:21,-938.0,368.0,326.0
15:45:21,-938.0,368.0,326.0
15:45:21,-938.0,368.0,326.0
15:45:21,-938.0,368.0,326.0
15:45:21,-980.0,368.0,327.0
15:45:21,-980.0,368.0,327.0
15:45:21,-980.0,368.0,327.0
15:45:21,-980.0,368.0,327.0
15:45:21,-956.0,368.0,326.0
15:45:21,-956.0,368.0,326.0
15:45:21,-956.0,368.0,326.0
15:45:21,-956.0,368.0,326.0
15:45:21,-961.0,368.0,327.0
15:45:21,-961.0,368.0,327.0
15:45:21,-961.0,368.0,327.0
15:45:21,-961.0,368.0,327.0
15:45:21,-933.0,368.0,325.0
15:45:21,-933.0,368.0,325.0
15:45:21,-933.0,368.0,325.0
15:45:21,-933.0,368.0,325.0
15:45:21,-971.0,368.0,327.0
15:45:21,-971.0,368.0,327.0
15:45:21,-971.0,368.0,327.0
15:45:21,-971.0,368.0,327.0
15:45:21,-995.0,368.0,326.0
15:45:21,-995.0,368.0,326.0
15:45:21,-995.0,368.0,326.0
15:45:21,-995.0,368.0,326.0
15:45:21,-945.0,367.0,327.0
15:45:21,-945.0,367.0,327.0
15:45:21,-945.0,367.0,327.0
15:45:21,-945.0,367.0,327.0
15:45:21,-847.0,369.0,327.0
15:45:21,-847.0,369.0,327.0
15:45:21,-847.0,369.0,327.0
15:45:21,-847.0,369.0,327.0
15:45:21,-1012.0,369.0,326.0
15:45:21,-1012.0,369.0,326.0
15:45:21,-1012.0,369.0,326.0
15:45:21,-1012.0,369.0,326.0
15:45:21,-1027.0,369.0,327.0
15:45:21,-1027.0,369.0,327.0
15:45:21,-1027.0,369.0,327.0
15:45:21,-1027.0,369.0,327.0
15:45:21,-990.0,369.0,327.0
15:45:21,-990.0,369.0,327.0
15:45:21,-990.0,369.0,327.0
15:45:21,-990.0,369.0,327.0
15:45:21,-891.0,369.0,326.0
15:45:21,-891.0,369.0,326.0
15:45:21,-891.0,369.0,326.0
15:45:21,-891.0,369.0,326.0
15:45:21,-456.0,368.0,327.0
15:45:21,-456.0,368.0,327.0
15:45:21,-456.0,368.0,327.0
15:45:21,-456.0,368.0,327.0
15:45:21,-1381.0,369.0,325.0
15:45:21,-1381.0,369.0,325.0
15:45:21,-1381.0,369.0,325.0
15:45:21,-1381.0,369.0,325.0
15:45:21,-1039.0,368.0,326.0
15:45:21,-1039.0,368.0,326.0
15:45:21,-1039.0,368.0,326.0
15:45:21,-1039.0,368.0,326.0
15:45:21,-966.0,368.0,325.0
15:45:21,-966.0,368.0,325.0
15:45:21,-966.0,368.0,325.0
15:45:21,-966.0,368.0,325.0
15:45:21,-977.0,368.0,326.0
15:45:21,-977.0,368.0,326.0
15:45:21,-977.0,368.0,326.0
15:45:21,-977.0,368.0,326.0
15:45:21,-977.0,368.0,326.0
15:45:21,-977.0,368.0,326.0
15:45:21,-977.0,368.0,326.0
15:45:21,-977.0,368.0,326.0
15:45:21,-929.0,367.0,326.0
15:45:21,-929.0,367.0,326.0
15:45:21,-929.0,367.0,326.0
15:45:21,-929.0,367.0,326.0
15:45:21,-859.0,367.0,326.0
15:45:21,-859.0,367.0,326.0
15:45:21,-859.0,367.0,326.0
15:45:21,-859.0,367.0,326.0
15:45:21,-859.0,371.0,326.0
15:45:21,-859.0,371.0,326.0
15:45:21,-859.0,371.0,326.0
15:45:21,-859.0,371.0,326.0
15:45:21,-827.0,368.0,327.0
15:45:21,-827.0,368.0,327.0
15:45:21,-827.0,368.0,327.0
15:45:21,-827.0,368.0,327.0
15:45:21,-811.0,369.0,327.0
15:45:21,-811.0,369.0,327.0
15:45:21,-811.0,369.0,327.0
15:45:21,-811.0,369.0,327.0
15:45:21,-955.0,369.0,327.0
15:45:21,-955.0,369.0,327.0
15:45:21,-955.0,369.0,327.0
15:45:21,-955.0,369.0,327.0
15:45:21,-1012.0,368.0,327.0
15:45:21,-1012.0,368.0,327.0
15:45:21,-1012.0,368.0,327.0
15:45:21,-1012.0,368.0,327.0
15:45:21,-1081.0,368.0,328.0
15:45:21,-1081.0,368.0,328.0
15:45:21,-1081.0,368.0,328.0
15:45:21,-1081.0,368.0,328.0
15:45:21,-1093.0,369.0,327.0
15:45:21,-1093.0,369.0,327.0
15:45:21,-1093.0,369.0,327.0
15:45:21,-1093.0,369.0,327.0
15:45:21,-1131.0,369.0,327.0
15:45:21,-1131.0,369.0,327.0
15:45:21,-1131.0,369.0,327.0
15:45:21,-1131.0,369.0,327.0
15:45:21,-1100.0,368.0,327.0
15:45:21,-1100.0,368.0,327.0
15:45:21,-1100.0,368.0,327.0
15:45:21,-1100.0,368.0,327.0
15:45:21,-1162.0,369.0,327.0
15:45:21,-1162.0,369.0,327.0
15:45:21,-1162.0,369.0,327.0
15:45:21,-1162.0,369.0,327.0
15:45:21,-1067.0,368.0,326.0
15:45:21,-1067.0,368.0,326.0
15:45:21,-1067.0,368.0,326.0
15:45:21,-1067.0,368.0,326.0
15:45:21,-1098.0,369.0,326.0
15:45:21,-1098.0,369.0,326.0
15:45:21,-1098.0,369.0,326.0
15:45:21,-1098.0,369.0,326.0
15:45:21,-1108.0,369.0,326.0
15:45:21,-1108.0,369.0,326.0
15:45:21,-1108.0,369.0,326.0
15:45:21,-1108.0,369.0,326.0
15:45:21,-1135.0,370.0,326.0
15:45:21,-1135.0,370.0,326.0
15:45:21,-1135.0,370.0,326.0
15:45:21,-1135.0,370.0,326.0
15:45:21,-1120.0,369.0,327.0
15:45:21,-1120.0,369.0,327.0
15:45:21,-1120.0,369.0,327.0
15:45:21,-1120.0,369.0,327.0
15:45:21,-1100.0,369.0,326.0
15:45:21,-1100.0,369.0,326.0
15:45:21,-1100.0,369.0,326.0
15:45:21,-1100.0,369.0,326.0
15:45:21,-1148.0,370.0,326.0
15:45:21,-1148.0,370.0,326.0
15:45:21,-1148.0,370.0,326.0
15:45:21,-1148.0,370.0,326.0
15:45:21,-1142.0,369.0,326.0
15:45:21,-1142.0,369.0,326.0
15:45:21,-1142.0,369.0,326.0
15:45:21,-1142.0,369.0,326.0
15:45:21,-1109.0,370.0,327.0
15:45:21,-1109.0,370.0,327.0
15:45:21,-1109.0,370.0,327.0
15:45:21,-1109.0,370.0,327.0
15:45:21,-1053.0,368.0,326.0
15:45:21,-1053.0,368.0,326.0
15:45:21,-1053.0,368.0,326.0
15:45:21,-1053.0,368.0,326.0
15:45:21,-1176.0,369.0,326.0
15:45:21,-1176.0,369.0,326.0
15:45:21,-1176.0,369.0,326.0
15:45:21,-1176.0,369.0,326.0
15:45:21,-1200.0,368.0,327.0
15:45:21,-1200.0,368.0,327.0
15:45:21,-1200.0,368.0,327.0
15:45:21,-1200.0,368.0,327.0
15:45:21,-1177.0,369.0,327.0
15:45:21,-1177.0,369.0,327.0
15:45:21,-1177.0,369.0,327.0
15:45:21,-1177.0,369.0,327.0
15:45:21,-1125.0,369.0,327.0
15:45:21,-1125.0,369.0,327.0
15:45:21,-1125.0,369.0,327.0
15:45:21,-1125.0,369.0,327.0
15:45:21,-722.0,368.0,328.0
15:45:21,-722.0,368.0,328.0
15:45:21,-722.0,368.0,328.0
15:45:22,-722.0,368.0,328.0
15:45:22,-1481.0,367.0,328.0
15:45:22,-1481.0,367.0,328.0
15:45:22,-1481.0,367.0,328.0
15:45:22,-1481.0,367.0,328.0
15:45:22,-1227.0,369.0,328.0
15:45:22,-1227.0,369.0,328.0
15:45:22,-1227.0,369.0,328.0
15:45:22,-1227.0,369.0,328.0
15:45:22,-1219.0,369.0,328.0
15:45:22,-1219.0,369.0,328.0
15:45:22,-1219.0,369.0,328.0
15:45:22,-1219.0,369.0,328.0
15:45:22,-1220.0,369.0,328.0
15:45:22,-1220.0,369.0,328.0
15:45:22,-1220.0,369.0,328.0
15:45:22,-1220.0,369.0,328.0
15:45:22,-1217.0,368.0,327.0
15:45:22,-1217.0,368.0,327.0
15:45:22,-1217.0,368.0,327.0
15:45:22,-1217.0,368.0,327.0
15:45:22,-1225.0,369.0,327.0
15:45:22,-1225.0,369.0,327.0
15:45:22,-1225.0,369.0,327.0
15:45:22,-1225.0,369.0,327.0
15:45:22,-1123.0,370.0,327.0
15:45:22,-1123.0,370.0,327.0
15:45:22,-1123.0,370.0,327.0
15:45:22,-1123.0,370.0,327.0
15:45:22,-1106.0,370.0,327.0
15:45:22,-1106.0,370.0,327.0
15:45:22,-1106.0,370.0,327.0
15:45:22,-1106.0,370.0,327.0
15:45:22,-1089.0,369.0,329.0
15:45:22,-1089.0,369.0,329.0
15:45:22,-1089.0,369.0,329.0
15:45:22,-1089.0,369.0,329.0
15:45:22,-1117.0,369.0,327.0
15:45:22,-1117.0,369.0,327.0
15:45:22,-1117.0,369.0,327.0
15:45:22,-1117.0,369.0,327.0
15:45:22,-1208.0,368.0,328.0
15:45:22,-1208.0,368.0,328.0
15:45:22,-1208.0,368.0,328.0
15:45:22,-1208.0,368.0,328.0
15:45:22,-1323.0,367.0,328.0
15:45:22,-1323.0,367.0,328.0
15:45:22,-1323.0,367.0,328.0
15:45:22,-1323.0,367.0,328.0
15:45:22,-1351.0,369.0,326.0
15:45:22,-1351.0,369.0,326.0
15:45:22,-1351.0,369.0,326.0
15:45:22,-1351.0,369.0,326.0
15:45:22,-1346.0,369.0,325.0
15:45:22,-1346.0,369.0,325.0
15:45:22,-1346.0,369.0,325.0
15:45:22,-1346.0,369.0,325.0
15:45:22,-1342.0,369.0,327.0
15:45:22,-1342.0,369.0,327.0
15:45:22,-1342.0,369.0,327.0
15:45:22,-1342.0,369.0,327.0
15:45:22,-1413.0,369.0,327.0
15:45:22,-1413.0,369.0,327.0
15:45:22,-1413.0,369.0,327.0
15:45:22,-1413.0,369.0,327.0
15:45:22,-1396.0,369.0,327.0
15:45:22,-1396.0,369.0,327.0
15:45:22,-1396.0,369.0,327.0
15:45:22,-1396.0,369.0,327.0
15:45:22,-1344.0,368.0,327.0
15:45:22,-1344.0,368.0,327.0
15:45:22,-1344.0,368.0,327.0
15:45:22,-1344.0,368.0,327.0
15:45:22,-1360.0,370.0,327.0
15:45:22,-1360.0,370.0,327.0
15:45:22,-1360.0,370.0,327.0
15:45:22,-1360.0,370.0,327.0
15:45:22,-1404.0,369.0,327.0
15:45:22,-1404.0,369.0,327.0
15:45:22,-1404.0,369.0,327.0
15:45:22,-1404.0,369.0,327.0
15:45:22,-1382.0,368.0,328.0
15:45:22,-1382.0,368.0,328.0
15:45:22,-1382.0,368.0,328.0
15:45:22,-1382.0,368.0,328.0
15:45:22,-1409.0,370.0,327.0
15:45:22,-1409.0,370.0,327.0
15:45:22,-1409.0,370.0,327.0
15:45:22,-1409.0,370.0,327.0
15:45:22,-1384.0,371.0,328.0
15:45:22,-1384.0,371.0,328.0
15:45:22,-1384.0,371.0,328.0
15:45:22,-1384.0,371.0,328.0
15:45:22,-1416.0,368.0,328.0
15:45:22,-1416.0,368.0,328.0
15:45:22,-1416.0,368.0,328.0
15:45:22,-1416.0,368.0,328.0
15:45:22,-1386.0,369.0,327.0
15:45:22,-1386.0,369.0,327.0
15:45:22,-1386.0,369.0,327.0
15:45:22,-1386.0,369.0,327.0
15:45:22,-1347.0,369.0,328.0
15:45:22,-1347.0,369.0,328.0
15:45:22,-1347.0,369.0,328.0
15:45:22,-1347.0,369.0,328.0
15:45:22,-1437.0,368.0,327.0
15:45:22,-1437.0,368.0,327.0
15:45:22,-1437.0,368.0,327.0
15:45:22,-1437.0,368.0,327.0
15:45:22,-1431.0,368.0,328.0
15:45:22,-1431.0,368.0,328.0
15:45:22,-1431.0,368.0,328.0
15:45:22,-1431.0,368.0,328.0
15:45:22,-1496.0,370.0,326.0
15:45:22,-1496.0,370.0,326.0
15:45:22,-1496.0,370.0,326.0
15:45:22,-1496.0,370.0,326.0
15:45:22,-1379.0,368.0,326.0
15:45:22,-1379.0,368.0,326.0
15:45:22,-1379.0,368.0,326.0
15:45:22,-1379.0,368.0,326.0
15:45:22,-886.0,369.0,327.0
15:45:22,-886.0,369.0,327.0
15:45:22,-886.0,369.0,327.0
15:45:22,-886.0,369.0,327.0
15:45:22,-1793.0,368.0,326.0
15:45:22,-1793.0,368.0,326.0
15:45:22,-1793.0,368.0,326.0
15:45:22,-1793.0,368.0,326.0
15:45:22,-1519.0,368.0,326.0
15:45:22,-1519.0,368.0,326.0
15:45:22,-1519.0,368.0,326.0
15:45:22,-1519.0,368.0,326.0
15:45:22,-1422.0,369.0,326.0
15:45:22,-1422.0,369.0,326.0
15:45:22,-1422.0,369.0,326.0
15:45:22,-1422.0,369.0,326.0
15:45:22,-1447.0,368.0,326.0
15:45:22,-1447.0,368.0,326.0
15:45:22,-1447.0,368.0,326.0
15:45:22,-1447.0,368.0,326.0
15:45:22,-1474.0,368.0,326.0
15:45:22,-1474.0,368.0,326.0
15:45:22,-1474.0,368.0,326.0
15:45:22,-1474.0,368.0,326.0
15:45:22,-1405.0,368.0,326.0
15:45:22,-1405.0,368.0,326.0
15:45:22,-1405.0,368.0,326.0
15:45:22,-1405.0,368.0,326.0
15:45:22,-1380.0,369.0,326.0
15:45:22,-1380.0,369.0,326.0
15:45:22,-1380.0,369.0,326.0
15:45:22,-1380.0,369.0,326.0
15:45:22,-1354.0,368.0,326.0
15:45:22,-1354.0,368.0,326.0
15:45:22,-1354.0,368.0,326.0
15:45:22,-1354.0,368.0,326.0
15:45:22,-1266.0,368.0,327.0
15:45:22,-1266.0,368.0,327.0
15:45:22,-1266.0,368.0,327.0
15:45:22,-1266.0,368.0,327.0
15:45:22,-1303.0,368.0,327.0
15:45:22,-1303.0,368.0,327.0
15:45:22,-1303.0,368.0,327.0
15:45:22,-1303.0,368.0,327.0
15:45:22,-1415.0,368.0,327.0
15:45:22,-1415.0,368.0,327.0
15:45:22,-1415.0,368.0,327.0
15:45:22,-1415.0,368.0,327.0
15:45:22,-1465.0,368.0,326.0
15:45:22,-1465.0,368.0,326.0
15:45:22,-1465.0,368.0,326.0
15:45:22,-1465.0,368.0,326.0
15:45:22,-1586.0,368.0,326.0
15:45:22,-1586.0,368.0,326.0
15:45:22,-1586.0,368.0,326.0
15:45:22,-1586.0,368.0,326.0
15:45:22,-1574.0,369.0,326.0
15:45:22,-1574.0,369.0,326.0
15:45:22,-1574.0,369.0,326.0
15:45:22,-1574.0,369.0,326.0
15:45:22,-1621.0,369.0,327.0
15:45:22,-1621.0,369.0,327.0
15:45:22,-1621.0,369.0,327.0
15:45:22,-1621.0,369.0,327.0
15:45:22,-1630.0,368.0,327.0
15:45:22,-1630.0,368.0,327.0
15:45:22,-1630.0,368.0,327.0
15:45:22,-1630.0,368.0,327.0
15:45:22,-1533.0,369.0,327.0
15:45:22,-1533.0,369.0,327.0
15:45:22,-1533.0,369.0,327.0
15:45:22,-1533.0,369.0,327.0
15:45:22,-1555.0,369.0,328.0
15:45:22,-1555.0,369.0,328.0
15:45:22,-1555.0,369.0,328.0
15:45:22,-1555.0,369.0,328.0
15:45:22,-1514.0,370.0,327.0
15:45:22,-1514.0,370.0,327.0
15:45:22,-1514.0,370.0,327.0
15:45:22,-1514.0,370.0,327.0
15:45:23,-1568.0,369.0,327.0
15:45:23,-1568.0,369.0,327.0
15:45:23,-1568.0,369.0,327.0
15:45:23,-1568.0,369.0,327.0
15:45:23,-1506.0,369.0,327.0
15:45:23,-1506.0,369.0,327.0
15:45:23,-1506.0,369.0,327.0
15:45:23,-1506.0,369.0,327.0
15:45:23,-1561.0,370.0,326.0
15:45:23,-1561.0,370.0,326.0
15:45:23,-1561.0,370.0,326.0
15:45:23,-1561.0,370.0,326.0
15:45:23,-1598.0,370.0,327.0
15:45:23,-1598.0,370.0,327.0
15:45:23,-1598.0,370.0,327.0
15:45:23,-1598.0,370.0,327.0
15:45:23,-1524.0,371.0,326.0
15:45:23,-1524.0,371.0,326.0
15:45:23,-1524.0,371.0,326.0
15:45:23,-1524.0,371.0,326.0
15:45:23,-1502.0,369.0,327.0
15:45:23,-1502.0,369.0,327.0
15:45:23,-1502.0,369.0,327.0
15:45:23,-1502.0,369.0,327.0
15:45:23,-1452.0,369.0,326.0
15:45:23,-1452.0,369.0,326.0
15:45:23,-1452.0,369.0,326.0
15:45:23,-1452.0,369.0,326.0
15:45:23,-1569.0,368.0,326.0
15:45:23,-1569.0,368.0,326.0
15:45:23,-1569.0,368.0,326.0
15:45:23,-1569.0,368.0,326.0
15:45:23,-1599.0,370.0,327.0
15:45:23,-1599.0,370.0,327.0
15:45:23,-1599.0,370.0,327.0
15:45:23,-1599.0,370.0,327.0
15:45:23,-1596.0,369.0,327.0
15:45:23,-1596.0,369.0,327.0
15:45:23,-1596.0,369.0,327.0
15:45:23,-1596.0,369.0,327.0
15:45:23,-1490.0,369.0,326.0
15:45:23,-1490.0,369.0,326.0
15:45:23,-1490.0,369.0,326.0
15:45:23,-1490.0,369.0,326.0
15:45:23,-1027.0,368.0,327.0
15:45:23,-1027.0,368.0,327.0
15:45:23,-1027.0,368.0,327.0
15:45:23,-1027.0,368.0,327.0
15:45:23,-1986.0,369.0,328.0
15:45:23,-1986.0,369.0,328.0
15:45:23,-1986.0,369.0,328.0
15:45:23,-1986.0,369.0,328.0
15:45:23,-1605.0,369.0,328.0
15:45:23,-1605.0,369.0,328.0
15:45:23,-1605.0,369.0,328.0
15:45:23,-1605.0,369.0,328.0
15:45:23,-1532.0,369.0,327.0
15:45:23,-1532.0,369.0,327.0
15:45:23,-1532.0,369.0,327.0
15:45:23,-1532.0,369.0,327.0
15:45:23,-1482.0,369.0,327.0
15:45:23,-1482.0,369.0,327.0
15:45:23,-1482.0,369.0,327.0
15:45:23,-1482.0,369.0,327.0
15:45:23,-1496.0,370.0,328.0
15:45:23,-1496.0,370.0,328.0
15:45:23,-1496.0,370.0,328.0
15:45:23,-1496.0,370.0,328.0
15:45:23,-1475.0,369.0,327.0
15:45:23,-1475.0,369.0,327.0
15:45:23,-1475.0,369.0,327.0
15:45:23,-1475.0,369.0,327.0
15:45:23,-1429.0,367.0,327.0
15:45:23,-1429.0,367.0,327.0
15:45:23,-1429.0,367.0,327.0
15:45:23,-1429.0,367.0,327.0
15:45:23,-1357.0,368.0,327.0
15:45:23,-1357.0,368.0,327.0
15:45:23,-1357.0,368.0,327.0
15:45:23,-1357.0,368.0,327.0
15:45:23,-1340.0,368.0,327.0
15:45:23,-1340.0,368.0,327.0
15:45:23,-1340.0,368.0,327.0
15:45:23,-1340.0,368.0,327.0
15:45:23,-1351.0,369.0,327.0
15:45:23,-1351.0,369.0,327.0
15:45:23,-1351.0,369.0,327.0
15:45:23,-1351.0,369.0,327.0
15:45:23,-1407.0,368.0,328.0
15:45:23,-1407.0,368.0,328.0
15:45:23,-1407.0,368.0,328.0
15:45:23,-1407.0,368.0,328.0
15:45:23,-1537.0,369.0,326.0
15:45:23,-1537.0,369.0,326.0
15:45:23,-1537.0,369.0,326.0
15:45:23,-1537.0,369.0,326.0
15:45:23,-1554.0,369.0,326.0
15:45:23,-1554.0,369.0,326.0
15:45:23,-1554.0,369.0,326.0
15:45:23,-1554.0,369.0,326.0
15:45:23,-1613.0,369.0,326.0
15:45:23,-1613.0,369.0,326.0
15:45:23,-1613.0,369.0,326.0
15:45:23,-1613.0,369.0,326.0
15:45:23,-1504.0,368.0,325.0
15:45:23,-1504.0,368.0,325.0
15:45:23,-1504.0,368.0,325.0
15:45:23,-1504.0,368.0,325.0
15:45:23,-1590.0,369.0,326.0
15:45:23,-1590.0,369.0,326.0
15:45:23,-1590.0,369.0,326.0
15:45:23,-1590.0,369.0,326.0
15:45:23,-1590.0,367.0,325.0
15:45:23,-1590.0,367.0,325.0
15:45:23,-1590.0,367.0,325.0
15:45:23,-1590.0,367.0,325.0
15:45:23,-1482.0,366.0,326.0
15:45:23,-1482.0,366.0,326.0
15:45:23,-1482.0,366.0,326.0
15:45:23,-1482.0,366.0,326.0
15:45:23,-1539.0,367.0,326.0
15:45:23,-1539.0,367.0,326.0
15:45:23,-1539.0,367.0,326.0
15:45:23,-1539.0,367.0,326.0
15:45:23,-1542.0,367.0,326.0
15:45:23,-1542.0,367.0,326.0
15:45:23,-1542.0,367.0,326.0
15:45:23,-1542.0,367.0,326.0
15:45:23,-1455.0,369.0,325.0
15:45:23,-1455.0,369.0,325.0
15:45:23,-1455.0,369.0,325.0
15:45:23,-1455.0,369.0,325.0
15:45:23,-1520.0,368.0,326.0
15:45:23,-1520.0,368.0,326.0
15:45:23,-1520.0,368.0,326.0
15:45:23,-1520.0,368.0,326.0
15:45:23,-1444.0,369.0,326.0
15:45:23,-1444.0,369.0,326.0
15:45:23,-1444.0,369.0,326.0
15:45:23,-1444.0,369.0,326.0
15:45:23,-1415.0,368.0,327.0
15:45:23,-1415.0,368.0,327.0
15:45:23,-1415.0,368.0,327.0
15:45:23,-1415.0,368.0,327.0
15:45:23,-1406.0,367.0,327.0
15:45:23,-1406.0,367.0,327.0
15:45:23,-1406.0,367.0,327.0
15:45:23,-1406.0,367.0,327.0
15:45:23,-1495.0,368.0,327.0
15:45:23,-1495.0,368.0,327.0
15:45:23,-1495.0,368.0,327.0
15:45:23,-1495.0,368.0,327.0
15:45:23,-1483.0,368.0,328.0
15:45:23,-1483.0,368.0,328.0
