Tue Feb 03 12:33:02 IST 2026
TimeStamp,ECG,PPG
12:33:02,-32768.0,264.0,233.0
12:33:02,-32768.0,264.0,233.0
12:33:02,-32768.0,261.0,234.0
12:33:02,-32768.0,261.0,234.0
12:33:02,-32768.0,261.0,234.0
12:33:02,-32768.0,261.0,234.0
12:33:02,-32768.0,264.0,234.0
12:33:02,-32768.0,264.0,234.0
12:33:02,-32768.0,264.0,234.0
12:33:02,-32768.0,264.0,234.0
12:33:02,-32768.0,261.0,232.0
12:33:02,-32768.0,261.0,232.0
12:33:02,-32768.0,261.0,232.0
12:33:02,-32768.0,261.0,232.0
12:33:02,-32768.0,263.0,233.0
12:33:02,-32768.0,263.0,233.0
12:33:02,-32768.0,263.0,233.0
12:33:02,-32768.0,263.0,233.0
12:33:02,-32768.0,262.0,233.0
12:33:02,-32768.0,262.0,233.0
12:33:02,-32768.0,262.0,233.0
12:33:02,-32768.0,262.0,233.0
12:33:02,-32768.0,263.0,233.0
12:33:02,-32768.0,263.0,233.0
12:33:02,-32768.0,263.0,233.0
12:33:02,-32768.0,263.0,233.0
12:33:02,-32768.0,262.0,231.0
12:33:02,-32768.0,262.0,231.0
12:33:02,-32768.0,262.0,231.0
12:33:02,-32768.0,262.0,231.0
12:33:02,-32768.0,261.0,233.0
12:33:02,-32768.0,261.0,233.0
12:33:02,-32768.0,261.0,233.0
12:33:02,-32768.0,261.0,233.0
12:33:02,-32768.0,262.0,232.0
12:33:02,-32768.0,262.0,232.0
12:33:02,-32768.0,262.0,232.0
12:33:02,-32768.0,262.0,232.0
12:33:02,-32768.0,262.0,232.0
12:33:02,-32768.0,262.0,232.0
12:33:02,-32768.0,262.0,232.0
12:33:02,-32768.0,262.0,232.0
12:33:02,-32768.0,261.0,232.0
12:33:02,-32768.0,261.0,232.0
12:33:02,-32768.0,261.0,232.0
12:33:02,-32768.0,261.0,232.0
12:33:02,32767.0,261.0,232.0
12:33:02,32767.0,261.0,232.0
12:33:02,32767.0,261.0,232.0
12:33:02,32767.0,261.0,232.0
12:33:02,32767.0,261.0,232.0
12:33:02,32767.0,261.0,232.0
12:33:02,32767.0,261.0,232.0
12:33:02,32767.0,261.0,232.0
12:33:02,-28015.0,262.0,231.0
12:33:02,-28015.0,262.0,231.0
12:33:02,-28015.0,262.0,231.0
12:33:02,-28015.0,262.0,231.0
12:33:02,-32768.0,260.0,233.0
12:33:02,-32768.0,260.0,233.0
12:33:02,-32768.0,260.0,233.0
12:33:02,-32768.0,260.0,233.0
12:33:02,-32768.0,261.0,232.0
12:33:02,-32768.0,261.0,232.0
12:33:02,-32768.0,261.0,232.0
12:33:02,-32768.0,261.0,232.0
12:33:02,-32768.0,261.0,231.0
12:33:02,-32768.0,261.0,231.0
12:33:02,-32768.0,261.0,231.0
12:33:02,-32768.0,261.0,231.0
12:33:02,-32768.0,259.0,231.0
12:33:02,-32768.0,259.0,231.0
12:33:02,-32768.0,259.0,231.0
12:33:02,-32768.0,259.0,231.0
12:33:02,-32768.0,261.0,232.0
12:33:02,-32768.0,261.0,232.0
12:33:02,-32768.0,261.0,232.0
12:33:02,-32768.0,261.0,232.0
12:33:02,-32768.0,260.0,231.0
12:33:02,-32768.0,260.0,231.0
12:33:02,-32768.0,260.0,231.0
12:33:02,-32768.0,260.0,231.0
12:33:02,-32768.0,260.0,231.0
12:33:02,-32768.0,260.0,231.0
12:33:02,-32768.0,260.0,231.0
12:33:02,-32768.0,260.0,231.0
12:33:02,-32768.0,260.0,231.0
12:33:02,-32768.0,260.0,231.0
12:33:02,-32768.0,260.0,231.0
12:33:02,-32768.0,260.0,231.0
12:33:02,-32768.0,260.0,231.0
12:33:02,-32768.0,260.0,231.0
12:33:02,-32768.0,260.0,231.0
12:33:02,-32768.0,260.0,231.0
12:33:02,26435.0,261.0,231.0
12:33:02,26435.0,261.0,231.0
12:33:02,26435.0,261.0,231.0
12:33:02,26435.0,261.0,231.0
12:33:02,32767.0,262.0,231.0
12:33:02,32767.0,262.0,231.0
12:33:02,32767.0,262.0,231.0
12:33:02,32767.0,262.0,231.0
12:33:02,-20171.0,261.0,232.0
12:33:02,-20171.0,261.0,232.0
12:33:02,-20171.0,261.0,232.0
12:33:02,-20171.0,261.0,232.0
12:33:02,-32768.0,260.0,232.0
12:33:02,-32768.0,260.0,232.0
12:33:02,-32768.0,260.0,232.0
12:33:02,-32768.0,260.0,232.0
12:33:02,-32768.0,261.0,232.0
12:33:02,-32768.0,261.0,232.0
12:33:02,-32768.0,261.0,232.0
12:33:02,-32768.0,261.0,232.0
12:33:02,-32768.0,260.0,232.0
12:33:02,-32768.0,260.0,232.0
12:33:02,-32768.0,260.0,232.0
12:33:02,-32768.0,260.0,232.0
12:33:02,-32768.0,260.0,232.0
12:33:02,-32768.0,260.0,232.0
12:33:02,-32768.0,260.0,232.0
12:33:02,-32768.0,260.0,232.0
12:33:02,-32768.0,260.0,231.0
12:33:02,-32768.0,260.0,231.0
12:33:02,-32768.0,260.0,231.0
12:33:02,-32768.0,260.0,231.0
12:33:02,-32768.0,260.0,231.0
12:33:02,-32768.0,260.0,231.0
12:33:02,-32768.0,260.0,231.0
12:33:02,-32768.0,260.0,231.0
12:33:02,-27036.0,261.0,230.0
12:33:02,-27036.0,261.0,230.0
12:33:02,-27036.0,261.0,230.0
12:33:02,-27036.0,261.0,230.0
12:33:02,32767.0,260.0,232.0
12:33:02,32767.0,260.0,232.0
12:33:02,32767.0,260.0,232.0
12:33:02,32767.0,260.0,232.0
12:33:02,32767.0,261.0,232.0
12:33:02,32767.0,261.0,232.0
12:33:02,32767.0,261.0,232.0
12:33:02,32767.0,261.0,232.0
12:33:02,32767.0,260.0,230.0
12:33:02,32767.0,260.0,230.0
12:33:02,32767.0,260.0,230.0
12:33:03,32767.0,260.0,230.0
12:33:03,32767.0,262.0,232.0
12:33:03,32767.0,262.0,232.0
12:33:03,32767.0,262.0,232.0
12:33:03,32767.0,262.0,232.0
12:33:03,14020.0,261.0,233.0
12:33:03,14020.0,261.0,233.0
12:33:03,14020.0,261.0,233.0
12:33:03,14020.0,261.0,233.0
12:33:03,-32768.0,262.0,232.0
12:33:03,-32768.0,262.0,232.0
12:33:03,-32768.0,262.0,232.0
12:33:03,-32768.0,262.0,232.0
12:33:03,-32768.0,262.0,233.0
12:33:03,-32768.0,262.0,233.0
12:33:03,-32768.0,262.0,233.0
12:33:03,-32768.0,262.0,233.0
12:33:03,-32768.0,262.0,233.0
12:33:03,-32768.0,262.0,233.0
12:33:03,-32768.0,262.0,233.0
12:33:03,-32768.0,262.0,233.0
12:33:03,-32768.0,262.0,232.0
12:33:03,-32768.0,262.0,232.0
12:33:03,-32768.0,262.0,232.0
12:33:03,-32768.0,262.0,232.0
12:33:03,-32768.0,262.0,233.0
12:33:03,-32768.0,262.0,233.0
12:33:03,-32768.0,262.0,233.0
12:33:03,-32768.0,262.0,233.0
12:33:03,-32768.0,262.0,233.0
12:33:03,-32768.0,262.0,233.0
12:33:03,-32768.0,262.0,233.0
12:33:03,-32768.0,262.0,233.0
12:33:03,-126.0,262.0,233.0
12:33:03,-126.0,262.0,233.0
12:33:03,-126.0,262.0,233.0
12:33:03,-126.0,262.0,233.0
12:33:03,32767.0,264.0,234.0
12:33:03,32767.0,264.0,234.0
12:33:03,32767.0,264.0,234.0
12:33:03,32767.0,264.0,234.0
12:33:03,32767.0,262.0,234.0
12:33:03,32767.0,262.0,234.0
12:33:03,32767.0,262.0,234.0
12:33:03,32767.0,262.0,234.0
12:33:03,32767.0,261.0,232.0
12:33:03,32767.0,261.0,232.0
12:33:03,32767.0,261.0,232.0
12:33:03,32767.0,261.0,232.0
12:33:03,32767.0,262.0,231.0
12:33:03,32767.0,262.0,231.0
12:33:03,32767.0,262.0,231.0
12:33:03,32767.0,262.0,231.0
12:33:03,-31993.0,260.0,231.0
12:33:03,-31993.0,260.0,231.0
12:33:03,-31993.0,260.0,231.0
12:33:03,-31993.0,260.0,231.0
12:33:03,-32768.0,262.0,232.0
12:33:03,-32768.0,262.0,232.0
12:33:03,-32768.0,262.0,232.0
12:33:03,-32768.0,262.0,232.0
12:33:03,-32768.0,261.0,231.0
12:33:03,-32768.0,261.0,231.0
12:33:03,-32768.0,261.0,231.0
12:33:03,-32768.0,261.0,231.0
12:33:03,-32768.0,260.0,232.0
12:33:03,-32768.0,260.0,232.0
12:33:03,-32768.0,260.0,232.0
12:33:03,-32768.0,260.0,232.0
12:33:03,-32768.0,261.0,232.0
12:33:03,-32768.0,261.0,232.0
12:33:03,-32768.0,261.0,232.0
12:33:03,-32768.0,261.0,232.0
12:33:03,-32768.0,260.0,230.0
12:33:03,-32768.0,260.0,230.0
12:33:03,-32768.0,260.0,230.0
12:33:03,-32768.0,260.0,230.0
12:33:03,-32768.0,262.0,229.0
12:33:03,-32768.0,262.0,229.0
12:33:03,-32768.0,262.0,229.0
12:33:03,-32768.0,262.0,229.0
12:33:03,-32768.0,260.0,231.0
12:33:03,-32768.0,260.0,231.0
12:33:03,-32768.0,260.0,231.0
12:33:03,-32768.0,260.0,231.0
12:33:03,-32768.0,259.0,231.0
12:33:03,-32768.0,259.0,231.0
12:33:03,-32768.0,259.0,231.0
12:33:03,-32768.0,259.0,231.0
12:33:03,-32768.0,260.0,230.0
12:33:03,-32768.0,260.0,230.0
12:33:03,-32768.0,260.0,230.0
12:33:03,-32768.0,260.0,230.0
12:33:03,-32768.0,262.0,232.0
12:33:03,-32768.0,262.0,232.0
12:33:03,-32768.0,262.0,232.0
12:33:03,-32768.0,262.0,232.0
12:33:03,-32768.0,261.0,231.0
12:33:03,-32768.0,261.0,231.0
12:33:03,-32768.0,261.0,231.0
12:33:03,-32768.0,261.0,231.0
12:33:03,-32768.0,261.0,231.0
12:33:03,-32768.0,261.0,231.0
12:33:03,-32768.0,261.0,231.0
12:33:03,-32768.0,261.0,231.0
12:33:03,-32768.0,261.0,232.0
12:33:03,-32768.0,261.0,232.0
12:33:03,-32768.0,261.0,232.0
12:33:03,-32768.0,261.0,232.0
12:33:03,-32768.0,261.0,231.0
12:33:03,-32768.0,261.0,231.0
12:33:03,-32768.0,261.0,231.0
12:33:03,-32768.0,261.0,231.0
12:33:03,-32768.0,262.0,231.0
12:33:03,-32768.0,262.0,231.0
12:33:03,-32768.0,262.0,231.0
12:33:03,-32768.0,262.0,231.0
12:33:03,-32768.0,262.0,232.0
12:33:03,-32768.0,262.0,232.0
12:33:03,-32768.0,262.0,232.0
12:33:03,-32768.0,262.0,232.0
12:33:03,-32768.0,262.0,231.0
12:33:03,-32768.0,262.0,231.0
12:33:03,-32768.0,262.0,231.0
12:33:03,-32768.0,262.0,231.0
12:33:03,-32768.0,262.0,230.0
12:33:03,-32768.0,262.0,230.0
12:33:03,-32768.0,262.0,230.0
12:33:03,-32768.0,262.0,230.0
12:33:03,-32768.0,262.0,231.0
12:33:03,-32768.0,262.0,231.0
12:33:03,-32768.0,262.0,231.0
12:33:03,-32768.0,262.0,231.0
12:33:03,-32768.0,261.0,232.0
12:33:03,-32768.0,261.0,232.0
12:33:03,-32768.0,261.0,232.0
12:33:03,-32768.0,261.0,232.0
12:33:03,-32768.0,262.0,230.0
12:33:03,-32768.0,262.0,230.0
12:33:03,-32768.0,262.0,230.0
12:33:03,-32768.0,262.0,230.0
12:33:03,-32768.0,261.0,231.0
12:33:03,-32768.0,261.0,231.0
12:33:03,-32768.0,261.0,231.0
12:33:03,-32768.0,261.0,231.0
12:33:03,-32768.0,261.0,231.0
12:33:03,-32768.0,261.0,231.0
12:33:03,-32768.0,261.0,231.0
12:33:03,-32768.0,261.0,231.0
12:33:03,32767.0,261.0,231.0
12:33:03,32767.0,261.0,231.0
12:33:03,32767.0,261.0,231.0
12:33:03,32767.0,261.0,231.0
12:33:03,32767.0,263.0,232.0
12:33:03,32767.0,263.0,232.0
12:33:03,32767.0,263.0,232.0
12:33:03,32767.0,263.0,232.0
12:33:03,32767.0,262.0,231.0
12:33:03,32767.0,262.0,231.0
12:33:03,32767.0,262.0,231.0
12:33:03,32767.0,262.0,231.0
12:33:03,32767.0,261.0,231.0
12:33:03,32767.0,261.0,231.0
12:33:03,32767.0,261.0,231.0
12:33:03,32767.0,261.0,231.0
12:33:03,32767.0,261.0,230.0
12:33:03,32767.0,261.0,230.0
12:33:03,32767.0,261.0,230.0
12:33:03,32767.0,261.0,230.0
12:33:03,32767.0,262.0,232.0
12:33:03,32767.0,262.0,232.0
12:33:03,32767.0,262.0,232.0
12:33:03,32767.0,262.0,232.0
12:33:03,-4306.0,262.0,231.0
12:33:03,-4306.0,262.0,231.0
12:33:03,-4306.0,262.0,231.0
12:33:03,-4306.0,262.0,231.0
12:33:03,-32768.0,262.0,231.0
12:33:03,-32768.0,262.0,231.0
12:33:03,-32768.0,262.0,231.0
12:33:03,-32768.0,262.0,231.0
12:33:03,-32768.0,261.0,231.0
12:33:03,-32768.0,261.0,231.0
12:33:03,-32768.0,261.0,231.0
12:33:03,-32768.0,261.0,231.0
12:33:03,-32768.0,262.0,231.0
12:33:03,-32768.0,262.0,231.0
12:33:03,-32768.0,262.0,231.0
12:33:03,-32768.0,262.0,231.0
12:33:03,-32768.0,262.0,231.0
12:33:03,-32768.0,262.0,231.0
12:33:03,-32768.0,262.0,231.0
12:33:03,-32768.0,262.0,231.0
12:33:03,-32768.0,262.0,230.0
12:33:03,-32768.0,262.0,230.0
12:33:03,-32768.0,262.0,230.0
12:33:03,-32768.0,262.0,230.0
12:33:03,-32768.0,261.0,232.0
12:33:03,-32768.0,261.0,232.0
12:33:03,-32768.0,261.0,232.0
12:33:03,-32768.0,261.0,232.0
12:33:04,-32768.0,263.0,232.0
12:33:04,-32768.0,263.0,232.0
12:33:04,-32768.0,263.0,232.0
12:33:04,-32768.0,263.0,232.0
12:33:04,-32768.0,262.0,230.0
12:33:04,-32768.0,262.0,230.0
12:33:04,-32768.0,262.0,230.0
12:33:04,-32768.0,262.0,230.0
12:33:04,-32768.0,262.0,231.0
12:33:04,-32768.0,262.0,231.0
12:33:04,-32768.0,262.0,231.0
12:33:04,-32768.0,262.0,231.0
12:33:04,-32768.0,262.0,232.0
12:33:04,-32768.0,262.0,232.0
12:33:04,-32768.0,262.0,232.0
12:33:04,-32768.0,262.0,232.0
12:33:04,-32768.0,262.0,228.0
12:33:04,-32768.0,262.0,228.0
12:33:04,-32768.0,262.0,228.0
12:33:04,-32768.0,262.0,228.0
12:33:04,-32768.0,261.0,231.0
12:33:04,-32768.0,261.0,231.0
12:33:04,-32768.0,261.0,231.0
12:33:04,-32768.0,261.0,231.0
12:33:04,-32768.0,261.0,230.0
12:33:04,-32768.0,261.0,230.0
12:33:04,-32768.0,261.0,230.0
12:33:04,-32768.0,261.0,230.0
12:33:04,-32768.0,260.0,230.0
12:33:04,-32768.0,260.0,230.0
12:33:04,-32768.0,260.0,230.0
12:33:04,-32768.0,260.0,230.0
12:33:04,-32768.0,262.0,231.0
12:33:04,-32768.0,262.0,231.0
12:33:04,-32768.0,262.0,231.0
12:33:04,-32768.0,262.0,231.0
12:33:04,-32768.0,260.0,231.0
12:33:04,-32768.0,260.0,231.0
12:33:04,-32768.0,260.0,231.0
12:33:04,-32768.0,260.0,231.0
12:33:04,32767.0,260.0,231.0
12:33:04,32767.0,260.0,231.0
12:33:04,32767.0,260.0,231.0
12:33:04,32767.0,260.0,231.0
12:33:04,32767.0,261.0,229.0
12:33:04,32767.0,261.0,229.0
12:33:04,32767.0,261.0,229.0
12:33:04,32767.0,261.0,229.0
12:33:04,32767.0,262.0,230.0
12:33:04,32767.0,262.0,230.0
12:33:04,32767.0,262.0,230.0
12:33:04,32767.0,262.0,230.0
12:33:04,-32768.0,259.0,229.0
12:33:04,-32768.0,259.0,229.0
12:33:04,-32768.0,259.0,229.0
12:33:04,-32768.0,259.0,229.0
12:33:04,-32768.0,260.0,229.0
12:33:04,-32768.0,260.0,229.0
12:33:04,-32768.0,260.0,229.0
12:33:04,-32768.0,260.0,229.0
12:33:04,-32768.0,260.0,228.0
12:33:04,-32768.0,260.0,228.0
12:33:04,-32768.0,260.0,228.0
12:33:04,-32768.0,260.0,228.0
12:33:04,-32768.0,260.0,229.0
12:33:04,-32768.0,260.0,229.0
12:33:04,-32768.0,260.0,229.0
12:33:04,-32768.0,260.0,229.0
12:33:04,-32768.0,259.0,228.0
12:33:04,-32768.0,259.0,228.0
12:33:04,-32768.0,259.0,228.0
12:33:04,-32768.0,259.0,228.0
12:33:04,-32768.0,260.0,228.0
12:33:04,-32768.0,260.0,228.0
12:33:04,-32768.0,260.0,228.0
12:33:04,-32768.0,260.0,228.0
12:33:04,-32768.0,259.0,230.0
12:33:04,-32768.0,259.0,230.0
12:33:04,-32768.0,259.0,230.0
12:33:04,-32768.0,259.0,230.0
12:33:04,-32768.0,260.0,228.0
12:33:04,-32768.0,260.0,228.0
12:33:04,-32768.0,260.0,228.0
12:33:04,-32768.0,260.0,228.0
12:33:04,-32768.0,260.0,227.0
12:33:04,-32768.0,260.0,227.0
12:33:04,-32768.0,260.0,227.0
12:33:04,-32768.0,260.0,227.0
12:33:04,-32768.0,260.0,228.0
12:33:04,-32768.0,260.0,228.0
12:33:04,-32768.0,260.0,228.0
12:33:04,-32768.0,260.0,228.0
12:33:04,-32768.0,258.0,228.0
12:33:04,-32768.0,258.0,228.0
12:33:04,-32768.0,258.0,228.0
12:33:04,-32768.0,258.0,228.0
12:33:04,-32768.0,259.0,227.0
12:33:04,-32768.0,259.0,227.0
12:33:04,-32768.0,259.0,227.0
12:33:04,-32768.0,259.0,227.0
12:33:04,-32768.0,257.0,228.0
12:33:04,-32768.0,257.0,228.0
12:33:04,-32768.0,257.0,228.0
12:33:04,-32768.0,257.0,228.0
12:33:04,-32768.0,260.0,227.0
12:33:04,-32768.0,260.0,227.0
12:33:04,-32768.0,260.0,227.0
12:33:04,-32768.0,260.0,227.0
12:33:04,-32768.0,258.0,227.0
12:33:04,-32768.0,258.0,227.0
12:33:04,-32768.0,258.0,227.0
12:33:04,-32768.0,258.0,227.0
12:33:04,-17475.0,259.0,227.0
12:33:04,-17475.0,259.0,227.0
12:33:04,-17475.0,259.0,227.0
12:33:04,-17475.0,259.0,227.0
12:33:04,-32768.0,260.0,227.0
12:33:04,-32768.0,260.0,227.0
12:33:04,-32768.0,260.0,227.0
12:33:04,-32768.0,260.0,227.0
12:33:04,-32768.0,257.0,227.0
12:33:04,-32768.0,257.0,227.0
12:33:04,-32768.0,257.0,227.0
12:33:04,-32768.0,257.0,227.0
12:33:04,-32768.0,258.0,226.0
12:33:04,-32768.0,258.0,226.0
12:33:04,-32768.0,258.0,226.0
12:33:04,-32768.0,258.0,226.0
12:33:04,-32768.0,259.0,226.0
12:33:04,-32768.0,259.0,226.0
12:33:04,-32768.0,259.0,226.0
12:33:04,-32768.0,259.0,226.0
12:33:04,-32768.0,257.0,227.0
12:33:04,-32768.0,257.0,227.0
12:33:04,-32768.0,257.0,227.0
12:33:04,-32768.0,257.0,227.0
12:33:04,-32768.0,258.0,226.0
12:33:04,-32768.0,258.0,226.0
12:33:04,-32768.0,258.0,226.0
12:33:04,-32768.0,258.0,226.0
12:33:04,-32768.0,258.0,227.0
12:33:04,-32768.0,258.0,227.0
12:33:04,-32768.0,258.0,227.0
12:33:04,-32768.0,258.0,227.0
12:33:04,-31020.0,257.0,226.0
12:33:04,-31020.0,257.0,226.0
12:33:04,-31020.0,257.0,226.0
12:33:04,-31020.0,257.0,226.0
12:33:04,-29007.0,258.0,227.0
12:33:04,-29007.0,258.0,227.0
12:33:04,-29007.0,258.0,227.0
12:33:04,-29007.0,258.0,227.0
12:33:04,-27265.0,257.0,226.0
12:33:04,-27265.0,257.0,226.0
12:33:04,-27265.0,257.0,226.0
12:33:04,-27265.0,257.0,226.0
12:33:04,-25477.0,257.0,226.0
12:33:04,-25477.0,257.0,226.0
12:33:04,-25477.0,257.0,226.0
12:33:04,-25477.0,257.0,226.0
12:33:04,-23926.0,258.0,226.0
12:33:04,-23926.0,258.0,226.0
12:33:04,-23926.0,258.0,226.0
12:33:04,-23926.0,258.0,226.0
12:33:04,22939.0,257.0,227.0
12:33:04,22939.0,257.0,227.0
12:33:04,22939.0,257.0,227.0
12:33:04,22939.0,257.0,227.0
12:33:04,32767.0,256.0,226.0
12:33:04,32767.0,256.0,226.0
12:33:04,32767.0,256.0,226.0
12:33:04,32767.0,256.0,226.0
12:33:04,-30483.0,257.0,226.0
12:33:04,-30483.0,257.0,226.0
12:33:04,-30483.0,257.0,226.0
12:33:04,-30483.0,257.0,226.0
12:33:04,-32768.0,257.0,226.0
12:33:04,-32768.0,257.0,226.0
12:33:04,-32768.0,257.0,226.0
12:33:04,-32768.0,257.0,226.0
12:33:04,-32768.0,256.0,225.0
12:33:04,-32768.0,256.0,225.0
12:33:04,-32768.0,256.0,225.0
12:33:04,-32768.0,256.0,225.0
12:33:04,-32768.0,257.0,227.0
12:33:04,-32768.0,257.0,227.0
12:33:04,-32768.0,257.0,227.0
12:33:04,-32768.0,257.0,227.0
12:33:04,-32768.0,257.0,226.0
12:33:04,-32768.0,257.0,226.0
12:33:04,-32768.0,257.0,226.0
12:33:04,-32768.0,257.0,226.0
12:33:04,-32768.0,257.0,226.0
12:33:04,-32768.0,257.0,226.0
12:33:04,-32768.0,257.0,226.0
12:33:04,-32768.0,257.0,226.0
12:33:04,-32768.0,256.0,227.0
12:33:04,-32768.0,256.0,227.0
12:33:04,-32768.0,256.0,227.0
12:33:04,-32768.0,256.0,227.0
12:33:04,-32768.0,256.0,227.0
12:33:05,-32768.0,256.0,227.0
12:33:05,-32768.0,256.0,227.0
12:33:05,-32768.0,256.0,227.0
12:33:05,-32768.0,256.0,228.0
12:33:05,-32768.0,256.0,228.0
12:33:05,-32768.0,256.0,228.0
12:33:05,-32768.0,256.0,228.0
12:33:05,-32768.0,257.0,227.0
12:33:05,-32768.0,257.0,227.0
12:33:05,-32768.0,257.0,227.0
12:33:05,-32768.0,257.0,227.0
12:33:05,-32768.0,255.0,226.0
12:33:05,-32768.0,255.0,226.0
12:33:05,-32768.0,255.0,226.0
12:33:05,-32768.0,255.0,226.0
12:33:05,-31856.0,257.0,227.0
12:33:05,-31856.0,257.0,227.0
12:33:05,-31856.0,257.0,227.0
12:33:05,-31856.0,257.0,227.0
12:33:05,-29810.0,259.0,227.0
12:33:05,-29810.0,259.0,227.0
12:33:05,-29810.0,259.0,227.0
12:33:05,-29810.0,259.0,227.0
12:33:05,-27875.0,258.0,227.0
12:33:05,-27875.0,258.0,227.0
12:33:05,-27875.0,258.0,227.0
12:33:05,-27875.0,258.0,227.0
12:33:05,-26002.0,258.0,228.0
12:33:05,-26002.0,258.0,228.0
12:33:05,-26002.0,258.0,228.0
12:33:05,-26002.0,258.0,228.0
12:33:05,-24332.0,258.0,226.0
12:33:05,-24332.0,258.0,226.0
12:33:05,-24332.0,258.0,226.0
12:33:05,-24332.0,258.0,226.0
12:33:05,-22859.0,257.0,229.0
12:33:05,-22859.0,257.0,229.0
12:33:05,-22859.0,257.0,229.0
12:33:05,-22859.0,257.0,229.0
12:33:05,-21381.0,258.0,229.0
12:33:05,-21381.0,258.0,229.0
12:33:05,-21381.0,258.0,229.0
12:33:05,-21381.0,258.0,229.0
12:33:05,32767.0,260.0,227.0
12:33:05,32767.0,260.0,227.0
12:33:05,32767.0,260.0,227.0
12:33:05,32767.0,260.0,227.0
12:33:05,32767.0,261.0,228.0
12:33:05,32767.0,261.0,228.0
12:33:05,32767.0,261.0,228.0
12:33:05,32767.0,261.0,228.0
12:33:05,32767.0,260.0,228.0
12:33:05,32767.0,260.0,228.0
12:33:05,32767.0,260.0,228.0
12:33:05,32767.0,260.0,228.0
12:33:05,32767.0,258.0,227.0
12:33:05,32767.0,258.0,227.0
12:33:05,32767.0,258.0,227.0
12:33:05,32767.0,258.0,227.0
12:33:05,32767.0,259.0,229.0
12:33:05,32767.0,259.0,229.0
12:33:05,32767.0,259.0,229.0
12:33:05,32767.0,259.0,229.0
12:33:05,32767.0,260.0,229.0
12:33:05,32767.0,260.0,229.0
12:33:05,32767.0,260.0,229.0
12:33:05,32767.0,260.0,229.0
12:33:05,32767.0,258.0,230.0
12:33:05,32767.0,258.0,230.0
12:33:05,32767.0,258.0,230.0
12:33:05,32767.0,258.0,230.0
12:33:05,32767.0,260.0,229.0
12:33:05,32767.0,260.0,229.0
12:33:05,32767.0,260.0,229.0
12:33:05,32767.0,260.0,229.0
12:33:05,32767.0,260.0,229.0
12:33:05,32767.0,260.0,229.0
12:33:05,32767.0,260.0,229.0
12:33:05,32767.0,260.0,229.0
12:33:05,32767.0,260.0,231.0
12:33:05,32767.0,260.0,231.0
12:33:05,32767.0,260.0,231.0
12:33:05,32767.0,260.0,231.0
12:33:05,21717.0,260.0,229.0
12:33:05,21717.0,260.0,229.0
12:33:05,21717.0,260.0,229.0
12:33:05,21717.0,260.0,229.0
12:33:05,-32768.0,260.0,230.0
12:33:05,-32768.0,260.0,230.0
12:33:05,-32768.0,260.0,230.0
12:33:05,-32768.0,260.0,230.0
12:33:05,-32768.0,261.0,230.0
12:33:05,-32768.0,261.0,230.0
12:33:05,-32768.0,261.0,230.0
12:33:05,-32768.0,261.0,230.0
12:33:05,-32768.0,261.0,230.0
12:33:05,-32768.0,261.0,230.0
12:33:05,-32768.0,261.0,230.0
12:33:05,-32768.0,261.0,230.0
12:33:05,-32768.0,259.0,230.0
12:33:05,-32768.0,259.0,230.0
12:33:05,-32768.0,259.0,230.0
12:33:05,-32768.0,259.0,230.0
12:33:05,-32768.0,261.0,230.0
12:33:05,-32768.0,261.0,230.0
12:33:05,-32768.0,261.0,230.0
12:33:05,-32768.0,261.0,230.0
12:33:05,-32768.0,262.0,229.0
12:33:05,-32768.0,262.0,229.0
12:33:05,-32768.0,262.0,229.0
12:33:05,-32768.0,262.0,229.0
12:33:05,32767.0,262.0,230.0
12:33:05,32767.0,262.0,230.0
12:33:05,32767.0,262.0,230.0
12:33:05,32767.0,262.0,230.0
12:33:05,32767.0,262.0,231.0
12:33:05,32767.0,262.0,231.0
12:33:05,32767.0,262.0,231.0
12:33:05,32767.0,262.0,231.0
12:33:05,32767.0,261.0,229.0
12:33:05,32767.0,261.0,229.0
12:33:05,32767.0,261.0,229.0
12:33:05,32767.0,261.0,229.0
12:33:05,32767.0,260.0,231.0
12:33:05,32767.0,260.0,231.0
12:33:05,32767.0,260.0,231.0
12:33:05,32767.0,260.0,231.0
12:33:05,-32768.0,262.0,231.0
12:33:05,-32768.0,262.0,231.0
12:33:05,-32768.0,262.0,231.0
12:33:05,-32768.0,262.0,231.0
12:33:05,-32768.0,262.0,231.0
12:33:05,-32768.0,262.0,231.0
12:33:05,-32768.0,262.0,231.0
12:33:05,-32768.0,262.0,231.0
12:33:05,22100.0,264.0,231.0
12:33:05,22100.0,264.0,231.0
12:33:05,22100.0,264.0,231.0
12:33:05,22100.0,264.0,231.0
12:33:05,-32768.0,263.0,231.0
12:33:05,-32768.0,263.0,231.0
12:33:05,-32768.0,263.0,231.0
12:33:05,-32768.0,263.0,231.0
12:33:05,-32768.0,262.0,231.0
12:33:05,-32768.0,262.0,231.0
12:33:05,-32768.0,262.0,231.0
12:33:05,-32768.0,262.0,231.0
12:33:05,-32768.0,263.0,231.0
12:33:05,-32768.0,263.0,231.0
12:33:05,-32768.0,263.0,231.0
12:33:05,-32768.0,263.0,231.0
12:33:05,-32768.0,263.0,231.0
12:33:05,-32768.0,263.0,231.0
12:33:05,-32768.0,263.0,231.0
12:33:05,-32768.0,263.0,231.0
12:33:05,-32768.0,263.0,232.0
12:33:05,-32768.0,263.0,232.0
12:33:05,-32768.0,263.0,232.0
12:33:05,-32768.0,263.0,232.0
12:33:05,-32768.0,263.0,234.0
12:33:05,-32768.0,263.0,234.0
12:33:05,-32768.0,263.0,234.0
12:33:05,-32768.0,263.0,234.0
12:33:05,-32768.0,264.0,233.0
12:33:05,-32768.0,264.0,233.0
12:33:05,-32768.0,264.0,233.0
12:33:05,-32768.0,264.0,233.0
12:33:05,-32768.0,263.0,233.0
12:33:05,-32768.0,263.0,233.0
12:33:05,-32768.0,263.0,233.0
12:33:05,-32768.0,263.0,233.0
12:33:05,-32768.0,263.0,233.0
12:33:05,-32768.0,263.0,233.0
12:33:05,-32768.0,263.0,233.0
12:33:05,-32768.0,263.0,233.0
12:33:05,-32768.0,264.0,232.0
12:33:05,-32768.0,264.0,232.0
12:33:05,-32768.0,264.0,232.0
12:33:05,-32768.0,264.0,232.0
12:33:05,4969.0,263.0,233.0
12:33:05,4969.0,263.0,233.0
12:33:05,4969.0,263.0,233.0
12:33:05,4969.0,263.0,233.0
12:33:05,-32768.0,264.0,234.0
12:33:05,-32768.0,264.0,234.0
12:33:05,-32768.0,264.0,234.0
12:33:05,-32768.0,264.0,234.0
12:33:05,-32768.0,264.0,233.0
12:33:05,-32768.0,264.0,233.0
12:33:05,-32768.0,264.0,233.0
12:33:05,-32768.0,264.0,233.0
12:33:05,-32768.0,264.0,233.0
12:33:05,-32768.0,264.0,233.0
12:33:05,-32768.0,264.0,233.0
12:33:05,-32768.0,264.0,233.0
12:33:05,-32768.0,264.0,233.0
12:33:05,-32768.0,264.0,233.0
12:33:05,-32768.0,264.0,233.0
12:33:05,-32768.0,264.0,233.0
12:33:05,-32768.0,264.0,234.0
12:33:05,-32768.0,264.0,234.0
12:33:06,-32768.0,264.0,234.0
12:33:06,-32768.0,264.0,234.0
12:33:06,-32768.0,264.0,232.0
12:33:06,-32768.0,264.0,232.0
12:33:06,-32768.0,264.0,232.0
12:33:06,-32768.0,264.0,232.0
12:33:06,-32768.0,264.0,232.0
12:33:06,-32768.0,264.0,232.0
12:33:06,-32768.0,264.0,232.0
12:33:06,-32768.0,264.0,232.0
12:33:06,-32768.0,264.0,232.0
12:33:06,-32768.0,264.0,232.0
12:33:06,-32768.0,264.0,232.0
12:33:06,-32768.0,264.0,232.0
12:33:06,-32768.0,262.0,232.0
12:33:06,-32768.0,262.0,232.0
12:33:06,-32768.0,262.0,232.0
12:33:06,-32768.0,262.0,232.0
12:33:06,-32768.0,264.0,232.0
12:33:06,-32768.0,264.0,232.0
12:33:06,-32768.0,264.0,232.0
12:33:06,-32768.0,264.0,232.0
12:33:06,-32768.0,264.0,231.0
12:33:06,-32768.0,264.0,231.0
12:33:06,-32768.0,264.0,231.0
12:33:06,-32768.0,264.0,231.0
12:33:06,-32768.0,262.0,232.0
12:33:06,-32768.0,262.0,232.0
12:33:06,-32768.0,262.0,232.0
12:33:06,-32768.0,262.0,232.0
12:33:06,-32768.0,262.0,232.0
12:33:06,-32768.0,262.0,232.0
12:33:06,-32768.0,262.0,232.0
12:33:06,-32768.0,262.0,232.0
12:33:06,-32768.0,262.0,230.0
12:33:06,-32768.0,262.0,230.0
12:33:06,-32768.0,262.0,230.0
12:33:06,-32768.0,262.0,230.0
12:33:06,-32768.0,262.0,230.0
12:33:06,-32768.0,262.0,230.0
12:33:06,-32768.0,262.0,230.0
12:33:06,-32768.0,262.0,230.0
12:33:06,-32768.0,262.0,231.0
12:33:06,-32768.0,262.0,231.0
12:33:06,-32768.0,262.0,231.0
12:33:06,-32768.0,262.0,231.0
12:33:06,-32768.0,262.0,230.0
12:33:06,-32768.0,262.0,230.0
12:33:06,-32768.0,262.0,230.0
12:33:06,-32768.0,262.0,230.0
12:33:06,-32768.0,261.0,230.0
12:33:06,-32768.0,261.0,230.0
12:33:06,-32768.0,261.0,230.0
12:33:06,-32768.0,261.0,230.0
12:33:06,-32768.0,262.0,231.0
12:33:06,-32768.0,262.0,231.0
12:33:06,-32768.0,262.0,231.0
12:33:06,-32768.0,262.0,231.0
12:33:06,-32745.0,261.0,230.0
12:33:06,-32745.0,261.0,230.0
12:33:06,-32745.0,261.0,230.0
12:33:06,-32745.0,261.0,230.0
12:33:06,-30888.0,262.0,230.0
12:33:06,-30888.0,262.0,230.0
12:33:06,-30888.0,262.0,230.0
12:33:06,-30888.0,262.0,230.0
12:33:06,-28824.0,261.0,228.0
12:33:06,-28824.0,261.0,228.0
12:33:06,-28824.0,261.0,228.0
12:33:06,-28824.0,261.0,228.0
12:33:06,-26939.0,260.0,229.0
12:33:06,-26939.0,260.0,229.0
12:33:06,-26939.0,260.0,229.0
12:33:06,-26939.0,260.0,229.0
12:33:06,-25224.0,260.0,229.0
12:33:06,-25224.0,260.0,229.0
12:33:06,-25224.0,260.0,229.0
12:33:06,-25224.0,260.0,229.0
12:33:06,-32379.0,260.0,227.0
12:33:06,-32379.0,260.0,227.0
12:33:06,-32379.0,260.0,227.0
12:33:06,-32379.0,260.0,227.0
12:33:06,-30592.0,259.0,228.0
12:33:06,-30592.0,259.0,228.0
12:33:06,-30592.0,259.0,228.0
12:33:06,-30592.0,259.0,228.0
12:33:06,-28411.0,260.0,228.0
12:33:06,-28411.0,260.0,228.0
12:33:06,-28411.0,260.0,228.0
12:33:06,-28411.0,260.0,228.0
12:33:06,-26585.0,259.0,227.0
12:33:06,-26585.0,259.0,227.0
12:33:06,-26585.0,259.0,227.0
12:33:06,-26585.0,259.0,227.0
12:33:06,-24840.0,259.0,227.0
12:33:06,-24840.0,259.0,227.0
12:33:06,-24840.0,259.0,227.0
12:33:06,-24840.0,259.0,227.0
12:33:06,-23257.0,259.0,228.0
12:33:06,-23257.0,259.0,228.0
12:33:06,-23257.0,259.0,228.0
12:33:06,-23257.0,259.0,228.0
12:33:06,-21847.0,258.0,227.0
12:33:06,-21847.0,258.0,227.0
12:33:06,-21847.0,258.0,227.0
12:33:06,-21847.0,258.0,227.0
12:33:06,-15600.0,259.0,228.0
12:33:06,-15600.0,259.0,228.0
12:33:06,-15600.0,259.0,228.0
12:33:06,-15600.0,259.0,228.0
12:33:06,30662.0,260.0,227.0
12:33:06,30662.0,260.0,227.0
12:33:06,30662.0,260.0,227.0
12:33:06,30662.0,260.0,227.0
12:33:06,32767.0,259.0,228.0
12:33:06,32767.0,259.0,228.0
12:33:06,32767.0,259.0,228.0
12:33:06,32767.0,259.0,228.0
12:33:06,32767.0,260.0,228.0
12:33:06,32767.0,260.0,228.0
12:33:06,32767.0,260.0,228.0
12:33:06,32767.0,260.0,228.0
12:33:06,32767.0,258.0,226.0
12:33:06,32767.0,258.0,226.0
12:33:06,32767.0,258.0,226.0
12:33:06,32767.0,258.0,226.0
12:33:06,-32768.0,258.0,228.0
12:33:06,-32768.0,258.0,228.0
12:33:06,-32768.0,258.0,228.0
12:33:06,-32768.0,258.0,228.0
12:33:06,-32768.0,259.0,227.0
12:33:06,-32768.0,259.0,227.0
12:33:06,-32768.0,259.0,227.0
12:33:06,-32768.0,259.0,227.0
12:33:06,-32768.0,258.0,227.0
12:33:06,-32768.0,258.0,227.0
12:33:06,-32768.0,258.0,227.0
12:33:06,-32768.0,258.0,227.0
12:33:06,-32768.0,258.0,227.0
12:33:06,-32768.0,258.0,227.0
12:33:06,-32768.0,258.0,227.0
12:33:06,-32768.0,258.0,227.0
12:33:06,-32768.0,259.0,227.0
12:33:06,-32768.0,259.0,227.0
12:33:06,-32768.0,259.0,227.0
12:33:06,-32768.0,259.0,227.0
12:33:06,-16888.0,258.0,227.0
12:33:06,-16888.0,258.0,227.0
12:33:06,-16888.0,258.0,227.0
12:33:06,-16888.0,258.0,227.0
12:33:06,-26740.0,259.0,226.0
12:33:06,-26740.0,259.0,226.0
12:33:06,-26740.0,259.0,226.0
12:33:06,-26740.0,259.0,226.0
12:33:06,-32768.0,258.0,226.0
12:33:06,-32768.0,258.0,226.0
12:33:06,-32768.0,258.0,226.0
12:33:06,-32768.0,258.0,226.0
12:33:06,-32768.0,258.0,227.0
12:33:06,-32768.0,258.0,227.0
12:33:06,-32768.0,258.0,227.0
12:33:06,-32768.0,258.0,227.0
12:33:06,-32768.0,257.0,227.0
12:33:06,-32768.0,257.0,227.0
12:33:06,-32768.0,257.0,227.0
12:33:06,-32768.0,257.0,227.0
12:33:06,-32768.0,257.0,225.0
12:33:06,-32768.0,257.0,225.0
12:33:06,-32768.0,257.0,225.0
12:33:06,-32768.0,257.0,225.0
12:33:06,-32768.0,258.0,227.0
12:33:06,-32768.0,258.0,227.0
12:33:06,-32768.0,258.0,227.0
12:33:06,-32768.0,258.0,227.0
12:33:06,-31309.0,258.0,226.0
12:33:06,-31309.0,258.0,226.0
12:33:06,-31309.0,258.0,226.0
12:33:06,-31309.0,258.0,226.0
12:33:06,-32768.0,257.0,226.0
12:33:06,-32768.0,257.0,226.0
12:33:06,-32768.0,257.0,226.0
12:33:06,-32768.0,257.0,226.0
12:33:06,32767.0,257.0,228.0
12:33:06,32767.0,257.0,228.0
12:33:06,32767.0,257.0,228.0
12:33:06,32767.0,257.0,228.0
12:33:06,-32768.0,258.0,227.0
12:33:06,-32768.0,258.0,227.0
12:33:06,-32768.0,258.0,227.0
12:33:06,-32768.0,258.0,227.0
12:33:06,-32768.0,257.0,228.0
12:33:06,-32768.0,257.0,228.0
12:33:06,-32768.0,257.0,228.0
12:33:06,-32768.0,257.0,228.0
12:33:06,-32768.0,258.0,226.0
12:33:06,-32768.0,258.0,226.0
12:33:06,-32768.0,258.0,226.0
12:33:06,-32768.0,258.0,226.0
12:33:06,-32768.0,257.0,228.0
12:33:06,-32768.0,257.0,228.0
12:33:07,-32768.0,257.0,228.0
12:33:07,-32768.0,257.0,228.0
12:33:07,-32768.0,258.0,228.0
12:33:07,-32768.0,258.0,228.0
12:33:07,-32768.0,258.0,228.0
12:33:07,-32768.0,258.0,228.0
12:33:07,32759.0,257.0,228.0
12:33:07,32759.0,257.0,228.0
12:33:07,32759.0,257.0,228.0
12:33:07,32759.0,257.0,228.0
12:33:07,-32768.0,257.0,227.0
12:33:07,-32768.0,257.0,227.0
12:33:07,-32768.0,257.0,227.0
12:33:07,-32768.0,257.0,227.0
12:33:07,-32768.0,258.0,228.0
12:33:07,-32768.0,258.0,228.0
12:33:07,-32768.0,258.0,228.0
12:33:07,-32768.0,258.0,228.0
12:33:07,-32768.0,259.0,227.0
12:33:07,-32768.0,259.0,227.0
12:33:07,-32768.0,259.0,227.0
12:33:07,-32768.0,259.0,227.0
12:33:07,-32768.0,259.0,230.0
12:33:07,-32768.0,259.0,230.0
12:33:07,-32768.0,259.0,230.0
12:33:07,-32768.0,259.0,230.0
12:33:07,-32768.0,260.0,229.0
12:33:07,-32768.0,260.0,229.0
12:33:07,-32768.0,260.0,229.0
12:33:07,-32768.0,260.0,229.0
12:33:07,31906.0,260.0,228.0
12:33:07,31906.0,260.0,228.0
12:33:07,31906.0,260.0,228.0
12:33:07,31906.0,260.0,228.0
12:33:07,32767.0,258.0,230.0
12:33:07,32767.0,258.0,230.0
12:33:07,32767.0,258.0,230.0
12:33:07,32767.0,258.0,230.0
12:33:07,32767.0,259.0,230.0
12:33:07,32767.0,259.0,230.0
12:33:07,32767.0,259.0,230.0
12:33:07,32767.0,259.0,230.0
12:33:07,22747.0,260.0,229.0
12:33:07,22747.0,260.0,229.0
12:33:07,22747.0,260.0,229.0
12:33:07,22747.0,260.0,229.0
12:33:07,-32768.0,259.0,230.0
12:33:07,-32768.0,259.0,230.0
12:33:07,-32768.0,259.0,230.0
12:33:07,-32768.0,259.0,230.0
12:33:07,-32768.0,259.0,229.0
12:33:07,-32768.0,259.0,229.0
12:33:07,-32768.0,259.0,229.0
12:33:07,-32768.0,259.0,229.0
12:33:07,-32768.0,260.0,230.0
12:33:07,-32768.0,260.0,230.0
12:33:07,-32768.0,260.0,230.0
12:33:07,-32768.0,260.0,230.0
12:33:07,-32768.0,261.0,231.0
12:33:07,-32768.0,261.0,231.0
12:33:07,-32768.0,261.0,231.0
12:33:07,-32768.0,261.0,231.0
12:33:07,-32768.0,260.0,231.0
12:33:07,-32768.0,260.0,231.0
12:33:07,-32768.0,260.0,231.0
12:33:07,-32768.0,260.0,231.0
12:33:07,-32768.0,261.0,231.0
12:33:07,-32768.0,261.0,231.0
12:33:07,-32768.0,261.0,231.0
12:33:07,-32768.0,261.0,231.0
12:33:07,24253.0,261.0,232.0
12:33:07,24253.0,261.0,232.0
12:33:07,24253.0,261.0,232.0
12:33:07,24253.0,261.0,232.0
12:33:07,-32768.0,262.0,231.0
12:33:07,-32768.0,262.0,231.0
12:33:07,-32768.0,262.0,231.0
12:33:07,-32768.0,262.0,231.0
12:33:07,32767.0,261.0,231.0
12:33:07,32767.0,261.0,231.0
12:33:07,32767.0,261.0,231.0
12:33:07,32767.0,261.0,231.0
12:33:07,32767.0,263.0,230.0
12:33:07,32767.0,263.0,230.0
12:33:07,32767.0,263.0,230.0
12:33:07,32767.0,263.0,230.0
12:33:07,32767.0,262.0,231.0
12:33:07,32767.0,262.0,231.0
12:33:07,32767.0,262.0,231.0
12:33:07,32767.0,262.0,231.0
12:33:07,-32564.0,262.0,231.0
12:33:07,-32564.0,262.0,231.0
12:33:07,-32564.0,262.0,231.0
12:33:07,-32564.0,262.0,231.0
12:33:07,-32768.0,262.0,231.0
12:33:07,-32768.0,262.0,231.0
12:33:07,-32768.0,262.0,231.0
12:33:07,-32768.0,262.0,231.0
12:33:07,-32768.0,261.0,231.0
12:33:07,-32768.0,261.0,231.0
12:33:07,-32768.0,261.0,231.0
12:33:07,-32768.0,261.0,231.0
12:33:07,-32768.0,263.0,231.0
12:33:07,-32768.0,263.0,231.0
12:33:07,-32768.0,263.0,231.0
12:33:07,-32768.0,263.0,231.0
12:33:07,-32768.0,263.0,232.0
12:33:07,-32768.0,263.0,232.0
12:33:07,-32768.0,263.0,232.0
12:33:07,-32768.0,263.0,232.0
12:33:07,-32768.0,263.0,233.0
12:33:07,-32768.0,263.0,233.0
12:33:07,-32768.0,263.0,233.0
12:33:07,-32768.0,263.0,233.0
12:33:07,27077.0,262.0,231.0
12:33:07,27077.0,262.0,231.0
12:33:07,27077.0,262.0,231.0
12:33:07,27077.0,262.0,231.0
12:33:07,32767.0,263.0,232.0
12:33:07,32767.0,263.0,232.0
12:33:07,32767.0,263.0,232.0
12:33:07,32767.0,263.0,232.0
12:33:07,32767.0,263.0,231.0
12:33:07,32767.0,263.0,231.0
12:33:07,32767.0,263.0,231.0
12:33:07,32767.0,263.0,231.0
12:33:07,-32768.0,261.0,230.0
12:33:07,-32768.0,261.0,230.0
12:33:07,-32768.0,261.0,230.0
12:33:07,-32768.0,261.0,230.0
12:33:07,-32768.0,262.0,232.0
12:33:07,-32768.0,262.0,232.0
12:33:07,-32768.0,262.0,232.0
12:33:07,-32768.0,262.0,232.0
12:33:07,-32768.0,262.0,233.0
12:33:07,-32768.0,262.0,233.0
12:33:07,-32768.0,262.0,233.0
12:33:07,-32768.0,262.0,233.0
12:33:07,-32768.0,263.0,231.0
12:33:07,-32768.0,263.0,231.0
12:33:07,-32768.0,263.0,231.0
12:33:07,-32768.0,263.0,231.0
12:33:07,-32768.0,264.0,232.0
12:33:07,-32768.0,264.0,232.0
12:33:07,-32768.0,264.0,232.0
12:33:07,-32768.0,264.0,232.0
12:33:07,-32768.0,262.0,231.0
12:33:07,-32768.0,262.0,231.0
12:33:07,-32768.0,262.0,231.0
12:33:07,-32768.0,262.0,231.0
12:33:07,28971.0,262.0,231.0
12:33:07,28971.0,262.0,231.0
12:33:07,28971.0,262.0,231.0
12:33:07,28971.0,262.0,231.0
12:33:07,32767.0,264.0,232.0
12:33:07,32767.0,264.0,232.0
12:33:07,32767.0,264.0,232.0
12:33:07,32767.0,264.0,232.0
12:33:07,3066.0,263.0,233.0
12:33:07,3066.0,263.0,233.0
12:33:07,3066.0,263.0,233.0
12:33:07,3066.0,263.0,233.0
12:33:07,-8338.0,263.0,232.0
12:33:07,-8338.0,263.0,232.0
12:33:07,-8338.0,263.0,232.0
12:33:07,-8338.0,263.0,232.0
12:33:07,32767.0,264.0,232.0
12:33:07,32767.0,264.0,232.0
12:33:07,32767.0,264.0,232.0
12:33:07,32767.0,264.0,232.0
12:33:07,-32768.0,263.0,231.0
12:33:07,-32768.0,263.0,231.0
12:33:07,-32768.0,263.0,231.0
12:33:07,-32768.0,263.0,231.0
12:33:07,-32768.0,263.0,231.0
12:33:07,-32768.0,263.0,231.0
12:33:07,-32768.0,263.0,231.0
12:33:07,-32768.0,263.0,231.0
12:33:07,-32768.0,262.0,233.0
12:33:07,-32768.0,262.0,233.0
12:33:07,-32768.0,262.0,233.0
12:33:07,-32768.0,262.0,233.0
12:33:07,-32768.0,262.0,231.0
12:33:07,-32768.0,262.0,231.0
12:33:07,-32768.0,262.0,231.0
12:33:07,-32768.0,262.0,231.0
12:33:07,-32768.0,263.0,231.0
12:33:07,-32768.0,263.0,231.0
12:33:07,-32768.0,263.0,231.0
12:33:07,-32768.0,263.0,231.0
12:33:07,-32768.0,263.0,232.0
12:33:07,-32768.0,263.0,232.0
12:33:07,-32768.0,263.0,232.0
12:33:07,-32768.0,263.0,232.0
12:33:07,24345.0,263.0,231.0
12:33:07,24345.0,263.0,231.0
12:33:07,24345.0,263.0,231.0
12:33:07,24345.0,263.0,231.0
12:33:07,-16809.0,262.0,231.0
12:33:07,-16809.0,262.0,231.0
12:33:07,-16809.0,262.0,231.0
12:33:08,-16809.0,262.0,231.0
12:33:08,-17085.0,263.0,230.0
12:33:08,-17085.0,263.0,230.0
12:33:08,-17085.0,263.0,230.0
12:33:08,-17085.0,263.0,230.0
12:33:08,32767.0,262.0,231.0
12:33:08,32767.0,262.0,231.0
12:33:08,32767.0,262.0,231.0
12:33:08,32767.0,262.0,231.0
12:33:08,-32768.0,263.0,231.0
12:33:08,-32768.0,263.0,231.0
12:33:08,-32768.0,263.0,231.0
12:33:08,-32768.0,263.0,231.0
12:33:08,-32768.0,263.0,229.0
12:33:08,-32768.0,263.0,229.0
12:33:08,-32768.0,263.0,229.0
12:33:08,-32768.0,263.0,229.0
12:33:08,-32768.0,262.0,230.0
12:33:08,-32768.0,262.0,230.0
12:33:08,-32768.0,262.0,230.0
12:33:08,-32768.0,262.0,230.0
12:33:08,-32768.0,261.0,230.0
12:33:08,-32768.0,261.0,230.0
12:33:08,-32768.0,261.0,230.0
12:33:08,-32768.0,261.0,230.0
12:33:08,32192.0,261.0,230.0
12:33:08,32192.0,261.0,230.0
12:33:08,32192.0,261.0,230.0
12:33:08,32192.0,261.0,230.0
12:33:08,32767.0,262.0,230.0
12:33:08,32767.0,262.0,230.0
12:33:08,32767.0,262.0,230.0
12:33:08,32767.0,262.0,230.0
12:33:08,32767.0,262.0,231.0
12:33:08,32767.0,262.0,231.0
12:33:08,32767.0,262.0,231.0
12:33:08,32767.0,262.0,231.0
12:33:08,4590.0,260.0,229.0
12:33:08,4590.0,260.0,229.0
12:33:08,4590.0,260.0,229.0
12:33:08,4590.0,260.0,229.0
12:33:08,-32768.0,260.0,229.0
12:33:08,-32768.0,260.0,229.0
12:33:08,-32768.0,260.0,229.0
12:33:08,-32768.0,260.0,229.0
12:33:08,-32768.0,259.0,229.0
12:33:08,-32768.0,259.0,229.0
12:33:08,-32768.0,259.0,229.0
12:33:08,-32768.0,259.0,229.0
12:33:08,-32768.0,261.0,228.0
12:33:08,-32768.0,261.0,228.0
12:33:08,-32768.0,261.0,228.0
12:33:08,-32768.0,261.0,228.0
12:33:08,-28828.0,259.0,229.0
12:33:08,-28828.0,259.0,229.0
12:33:08,-28828.0,259.0,229.0
12:33:08,-28828.0,259.0,229.0
12:33:08,32767.0,260.0,229.0
12:33:08,32767.0,260.0,229.0
12:33:08,32767.0,260.0,229.0
12:33:08,32767.0,260.0,229.0
12:33:08,32767.0,259.0,227.0
12:33:08,32767.0,259.0,227.0
12:33:08,32767.0,259.0,227.0
12:33:08,32767.0,259.0,227.0
12:33:08,21060.0,259.0,229.0
12:33:08,21060.0,259.0,229.0
12:33:08,21060.0,259.0,229.0
12:33:08,21060.0,259.0,229.0
12:33:08,-32768.0,258.0,228.0
12:33:08,-32768.0,258.0,228.0
12:33:08,-32768.0,258.0,228.0
12:33:08,-32768.0,258.0,228.0
12:33:08,-32768.0,261.0,227.0
12:33:08,-32768.0,261.0,227.0
12:33:08,-32768.0,261.0,227.0
12:33:08,-32768.0,261.0,227.0
12:33:08,-32768.0,259.0,227.0
12:33:08,-32768.0,259.0,227.0
12:33:08,-32768.0,259.0,227.0
12:33:08,-32768.0,259.0,227.0
12:33:08,-32768.0,258.0,228.0
12:33:08,-32768.0,258.0,228.0
12:33:08,-32768.0,258.0,228.0
12:33:08,-32768.0,258.0,228.0
12:33:08,-32768.0,259.0,227.0
12:33:08,-32768.0,259.0,227.0
12:33:08,-32768.0,259.0,227.0
12:33:08,-32768.0,259.0,227.0
12:33:08,30116.0,259.0,228.0
12:33:08,30116.0,259.0,228.0
12:33:08,30116.0,259.0,228.0
12:33:08,30116.0,259.0,228.0
12:33:08,-32768.0,257.0,227.0
12:33:08,-32768.0,257.0,227.0
12:33:08,-32768.0,257.0,227.0
12:33:08,-32768.0,257.0,227.0
12:33:08,-816.0,259.0,228.0
12:33:08,-816.0,259.0,228.0
12:33:08,-816.0,259.0,228.0
12:33:08,-816.0,259.0,228.0
12:33:08,32767.0,259.0,227.0
12:33:08,32767.0,259.0,227.0
12:33:08,32767.0,259.0,227.0
12:33:08,32767.0,259.0,227.0
12:33:08,-18089.0,258.0,228.0
12:33:08,-18089.0,258.0,228.0
12:33:08,-18089.0,258.0,228.0
12:33:08,-18089.0,258.0,228.0
12:33:08,-32768.0,259.0,227.0
12:33:08,-32768.0,259.0,227.0
12:33:08,-32768.0,259.0,227.0
12:33:08,-32768.0,259.0,227.0
12:33:08,-32768.0,257.0,227.0
12:33:08,-32768.0,257.0,227.0
12:33:08,-32768.0,257.0,227.0
12:33:08,-32768.0,257.0,227.0
12:33:08,-32768.0,258.0,226.0
12:33:08,-32768.0,258.0,226.0
12:33:08,-32768.0,258.0,226.0
12:33:08,-32768.0,258.0,226.0
12:33:08,-32768.0,258.0,227.0
12:33:08,-32768.0,258.0,227.0
12:33:08,-32768.0,258.0,227.0
12:33:08,-32768.0,258.0,227.0
12:33:08,-32768.0,259.0,228.0
12:33:08,-32768.0,259.0,228.0
12:33:08,-32768.0,259.0,228.0
12:33:08,-32768.0,259.0,228.0
12:33:08,-32768.0,258.0,226.0
12:33:08,-32768.0,258.0,226.0
12:33:08,-32768.0,258.0,226.0
12:33:08,-32768.0,258.0,226.0
12:33:08,1918.0,258.0,227.0
12:33:08,1918.0,258.0,227.0
12:33:08,1918.0,258.0,227.0
12:33:08,1918.0,258.0,227.0
12:33:08,-32768.0,259.0,226.0
12:33:08,-32768.0,259.0,226.0
12:33:08,-32768.0,259.0,226.0
12:33:08,-32768.0,259.0,226.0
12:33:08,-30825.0,256.0,226.0
12:33:08,-30825.0,256.0,226.0
12:33:08,-30825.0,256.0,226.0
12:33:08,-30825.0,256.0,226.0
12:33:08,32767.0,257.0,225.0
12:33:08,32767.0,257.0,225.0
12:33:08,32767.0,257.0,225.0
12:33:08,32767.0,257.0,225.0
12:33:08,32767.0,257.0,226.0
12:33:08,32767.0,257.0,226.0
12:33:08,32767.0,257.0,226.0
12:33:08,32767.0,257.0,226.0
12:33:08,-32768.0,256.0,227.0
12:33:08,-32768.0,256.0,227.0
12:33:08,-32768.0,256.0,227.0
12:33:08,-32768.0,256.0,227.0
12:33:08,-32768.0,258.0,226.0
12:33:08,-32768.0,258.0,226.0
12:33:08,-32768.0,258.0,226.0
12:33:08,-32768.0,258.0,226.0
12:33:08,-32768.0,259.0,228.0
12:33:08,-32768.0,259.0,228.0
12:33:08,-32768.0,259.0,228.0
12:33:08,-32768.0,259.0,228.0
12:33:08,-32768.0,257.0,228.0
12:33:08,-32768.0,257.0,228.0
12:33:08,-32768.0,257.0,228.0
12:33:08,-32768.0,257.0,228.0
12:33:08,-32768.0,258.0,227.0
12:33:08,-32768.0,258.0,227.0
12:33:08,-32768.0,258.0,227.0
12:33:08,-32768.0,258.0,227.0
12:33:08,-32156.0,258.0,227.0
12:33:08,-32156.0,258.0,227.0
12:33:08,-32156.0,258.0,227.0
12:33:08,-32156.0,258.0,227.0
12:33:08,32767.0,257.0,228.0
12:33:08,32767.0,257.0,228.0
12:33:08,32767.0,257.0,228.0
12:33:08,32767.0,257.0,228.0
12:33:08,9153.0,259.0,228.0
12:33:08,9153.0,259.0,228.0
12:33:08,9153.0,259.0,228.0
12:33:08,9153.0,259.0,228.0
12:33:08,32767.0,259.0,228.0
12:33:08,32767.0,259.0,228.0
12:33:08,32767.0,259.0,228.0
12:33:08,32767.0,259.0,228.0
12:33:08,32767.0,258.0,228.0
12:33:08,32767.0,258.0,228.0
12:33:08,32767.0,258.0,228.0
12:33:08,32767.0,258.0,228.0
12:33:08,32767.0,260.0,229.0
12:33:08,32767.0,260.0,229.0
12:33:08,32767.0,260.0,229.0
12:33:08,32767.0,260.0,229.0
12:33:08,12993.0,259.0,228.0
12:33:08,12993.0,259.0,228.0
12:33:08,12993.0,259.0,228.0
12:33:08,12993.0,259.0,228.0
12:33:09,-32768.0,259.0,228.0
12:33:09,-32768.0,259.0,228.0
12:33:09,-32768.0,259.0,228.0
12:33:09,-32768.0,259.0,228.0
12:33:09,-32768.0,259.0,229.0
12:33:09,-32768.0,259.0,229.0
12:33:09,-32768.0,259.0,229.0
12:33:09,-32768.0,259.0,229.0
12:33:09,-32768.0,260.0,228.0
12:33:09,-32768.0,260.0,228.0
12:33:09,-32768.0,260.0,228.0
12:33:09,-32768.0,260.0,228.0
12:33:09,-32768.0,259.0,228.0
12:33:09,-32768.0,259.0,228.0
12:33:09,-32768.0,259.0,228.0
12:33:09,-32768.0,259.0,228.0
12:33:09,27077.0,261.0,230.0
12:33:09,27077.0,261.0,230.0
12:33:09,27077.0,261.0,230.0
12:33:09,27077.0,261.0,230.0
12:33:09,-32768.0,259.0,229.0
12:33:09,-32768.0,259.0,229.0
12:33:09,-32768.0,259.0,229.0
12:33:09,-32768.0,259.0,229.0
12:33:09,-29897.0,260.0,229.0
12:33:09,-29897.0,260.0,229.0
12:33:09,-29897.0,260.0,229.0
12:33:09,-29897.0,260.0,229.0
12:33:09,32767.0,260.0,228.0
12:33:09,32767.0,260.0,228.0
12:33:09,32767.0,260.0,228.0
12:33:09,32767.0,260.0,228.0
12:33:09,32767.0,260.0,231.0
12:33:09,32767.0,260.0,231.0
12:33:09,32767.0,260.0,231.0
12:33:09,32767.0,260.0,231.0
12:33:09,-22778.0,262.0,231.0
12:33:09,-22778.0,262.0,231.0
12:33:09,-22778.0,262.0,231.0
12:33:09,-22778.0,262.0,231.0
12:33:09,-32768.0,262.0,231.0
12:33:09,-32768.0,262.0,231.0
12:33:09,-32768.0,262.0,231.0
12:33:09,-32768.0,262.0,231.0
12:33:09,-32768.0,263.0,231.0
12:33:09,-32768.0,263.0,231.0
12:33:09,-32768.0,263.0,231.0
12:33:09,-32768.0,263.0,231.0
12:33:09,-32768.0,262.0,230.0
12:33:09,-32768.0,262.0,230.0
12:33:09,-32768.0,262.0,230.0
12:33:09,-32768.0,262.0,230.0
12:33:09,-32768.0,262.0,231.0
12:33:09,-32768.0,262.0,231.0
12:33:09,-32768.0,262.0,231.0
12:33:09,-32768.0,262.0,231.0
12:33:09,-32768.0,262.0,232.0
12:33:09,-32768.0,262.0,232.0
12:33:09,-32768.0,262.0,232.0
12:33:09,-32768.0,262.0,232.0
12:33:09,-25549.0,262.0,232.0
12:33:09,-25549.0,262.0,232.0
12:33:09,-25549.0,262.0,232.0
12:33:09,-25549.0,262.0,232.0
12:33:09,-32768.0,262.0,230.0
12:33:09,-32768.0,262.0,230.0
12:33:09,-32768.0,262.0,230.0
12:33:09,-32768.0,262.0,230.0
12:33:09,27828.0,262.0,231.0
12:33:09,27828.0,262.0,231.0
12:33:09,27828.0,262.0,231.0
12:33:09,27828.0,262.0,231.0
12:33:09,32767.0,262.0,232.0
12:33:09,32767.0,262.0,232.0
12:33:09,32767.0,262.0,232.0
12:33:09,32767.0,262.0,232.0
12:33:09,32767.0,263.0,231.0
12:33:09,32767.0,263.0,231.0
12:33:09,32767.0,263.0,231.0
12:33:09,32767.0,263.0,231.0
12:33:09,30000.0,262.0,231.0
12:33:09,30000.0,262.0,231.0
12:33:09,30000.0,262.0,231.0
12:33:09,30000.0,262.0,231.0
12:33:09,-32768.0,262.0,231.0
12:33:09,-32768.0,262.0,231.0
12:33:09,-32768.0,262.0,231.0
12:33:09,-32768.0,262.0,231.0
12:33:09,-32768.0,263.0,230.0
12:33:09,-32768.0,263.0,230.0
12:33:09,-32768.0,263.0,230.0
12:33:09,-32768.0,263.0,230.0
12:33:09,-32768.0,262.0,232.0
12:33:09,-32768.0,262.0,232.0
12:33:09,-32768.0,262.0,232.0
12:33:09,-32768.0,262.0,232.0
12:33:09,-32768.0,262.0,231.0
12:33:09,-32768.0,262.0,231.0
12:33:09,-32768.0,262.0,231.0
12:33:09,-32768.0,262.0,231.0
12:33:09,-20791.0,262.0,230.0
12:33:09,-20791.0,262.0,230.0
12:33:09,-20791.0,262.0,230.0
12:33:09,-20791.0,262.0,230.0
12:33:09,-32768.0,262.0,232.0
12:33:09,-32768.0,262.0,232.0
12:33:09,-32768.0,262.0,232.0
12:33:09,-32768.0,262.0,232.0
12:33:09,-32768.0,262.0,232.0
12:33:09,-32768.0,262.0,232.0
12:33:09,-32768.0,262.0,232.0
12:33:09,-32768.0,262.0,232.0
12:33:09,32767.0,261.0,231.0
12:33:09,32767.0,261.0,231.0
12:33:09,32767.0,261.0,231.0
12:33:09,32767.0,261.0,231.0
12:33:09,-32768.0,262.0,231.0
12:33:09,-32768.0,262.0,231.0
12:33:09,-32768.0,262.0,231.0
12:33:09,-32768.0,262.0,231.0
12:33:09,-32768.0,262.0,231.0
12:33:09,-32768.0,262.0,231.0
12:33:09,-32768.0,262.0,231.0
12:33:09,-32768.0,262.0,231.0
12:33:09,-32768.0,262.0,232.0
12:33:09,-32768.0,262.0,232.0
12:33:09,-32768.0,262.0,232.0
12:33:09,-32768.0,262.0,232.0
12:33:09,-32768.0,263.0,233.0
12:33:09,-32768.0,263.0,233.0
12:33:09,-32768.0,263.0,233.0
12:33:09,-32768.0,263.0,233.0
12:33:09,-32762.0,262.0,233.0
12:33:09,-32762.0,262.0,233.0
12:33:09,-32762.0,262.0,233.0
12:33:09,-32762.0,262.0,233.0
12:33:09,-32363.0,262.0,232.0
12:33:09,-32363.0,262.0,232.0
12:33:09,-32363.0,262.0,232.0
12:33:09,-32363.0,262.0,232.0
12:33:09,-32768.0,264.0,232.0
12:33:09,-32768.0,264.0,232.0
12:33:09,-32768.0,264.0,232.0
12:33:09,-32768.0,264.0,232.0
12:33:09,11327.0,263.0,232.0
12:33:09,11327.0,263.0,232.0
12:33:09,11327.0,263.0,232.0
12:33:09,11327.0,263.0,232.0
12:33:09,32767.0,263.0,233.0
12:33:09,32767.0,263.0,233.0
12:33:09,32767.0,263.0,233.0
12:33:09,32767.0,263.0,233.0
12:33:09,24426.0,264.0,231.0
12:33:09,24426.0,264.0,231.0
12:33:09,24426.0,264.0,231.0
12:33:09,24426.0,264.0,231.0
12:33:09,-32768.0,262.0,233.0
12:33:09,-32768.0,262.0,233.0
12:33:09,-32768.0,262.0,233.0
12:33:09,-32768.0,262.0,233.0
12:33:09,-32768.0,263.0,232.0
12:33:09,-32768.0,263.0,232.0
12:33:09,-32768.0,263.0,232.0
12:33:09,-32768.0,263.0,232.0
12:33:09,-32768.0,263.0,233.0
12:33:09,-32768.0,263.0,233.0
12:33:09,-32768.0,263.0,233.0
12:33:09,-32768.0,263.0,233.0
12:33:09,-32768.0,263.0,231.0
12:33:09,-32768.0,263.0,231.0
12:33:09,-32768.0,263.0,231.0
12:33:09,-32768.0,263.0,231.0
12:33:09,-32768.0,261.0,231.0
12:33:09,-32768.0,261.0,231.0
12:33:09,-32768.0,261.0,231.0
12:33:09,-32768.0,261.0,231.0
12:33:09,23729.0,262.0,231.0
12:33:09,23729.0,262.0,231.0
12:33:09,23729.0,262.0,231.0
12:33:09,23729.0,262.0,231.0
12:33:09,-32768.0,262.0,230.0
12:33:09,-32768.0,262.0,230.0
12:33:09,-32768.0,262.0,230.0
12:33:09,-32768.0,262.0,230.0
12:33:09,-25646.0,262.0,230.0
12:33:09,-25646.0,262.0,230.0
12:33:09,-25646.0,262.0,230.0
12:33:09,-25646.0,262.0,230.0
12:33:09,32767.0,261.0,230.0
12:33:09,32767.0,261.0,230.0
12:33:09,32767.0,261.0,230.0
12:33:09,32767.0,261.0,230.0
12:33:09,-10524.0,261.0,230.0
12:33:09,-10524.0,261.0,230.0
12:33:09,-10524.0,261.0,230.0
12:33:09,-10524.0,261.0,230.0
12:33:09,-32768.0,260.0,230.0
12:33:09,-32768.0,260.0,230.0
12:33:09,-32768.0,260.0,230.0
12:33:09,-32768.0,260.0,230.0
12:33:09,-32768.0,261.0,229.0
12:33:10,-32768.0,261.0,229.0
12:33:10,-32768.0,261.0,229.0
12:33:10,-32768.0,261.0,229.0
12:33:10,-32768.0,260.0,230.0
12:33:10,-32768.0,260.0,230.0
12:33:10,-32768.0,260.0,230.0
12:33:10,-32768.0,260.0,230.0
12:33:10,-32768.0,261.0,230.0
12:33:10,-32768.0,261.0,230.0
12:33:10,-32768.0,261.0,230.0
12:33:10,-32768.0,261.0,230.0
12:33:10,12636.0,261.0,227.0
12:33:10,12636.0,261.0,227.0
12:33:10,12636.0,261.0,227.0
12:33:10,12636.0,261.0,227.0
12:33:10,-32768.0,260.0,230.0
12:33:10,-32768.0,260.0,230.0
12:33:10,-32768.0,260.0,230.0
12:33:10,-32768.0,260.0,230.0
12:33:10,-32768.0,260.0,230.0
12:33:10,-32768.0,260.0,230.0
12:33:10,-32768.0,260.0,230.0
12:33:10,-32768.0,260.0,230.0
12:33:10,32767.0,261.0,230.0
12:33:10,32767.0,261.0,230.0
12:33:10,32767.0,261.0,230.0
12:33:10,32767.0,261.0,230.0
12:33:10,32757.0,261.0,229.0
12:33:10,32757.0,261.0,229.0
12:33:10,32757.0,261.0,229.0
12:33:10,32757.0,261.0,229.0
12:33:10,-32768.0,259.0,229.0
12:33:10,-32768.0,259.0,229.0
12:33:10,-32768.0,259.0,229.0
12:33:10,-32768.0,259.0,229.0
12:33:10,-32768.0,261.0,228.0
12:33:10,-32768.0,261.0,228.0
12:33:10,-32768.0,261.0,228.0
12:33:10,-32768.0,261.0,228.0
12:33:10,-32768.0,259.0,229.0
12:33:10,-32768.0,259.0,229.0
12:33:10,-32768.0,259.0,229.0
12:33:10,-32768.0,259.0,229.0
12:33:10,-32768.0,259.0,228.0
12:33:10,-32768.0,259.0,228.0
12:33:10,-32768.0,259.0,228.0
12:33:10,-32768.0,259.0,228.0
12:33:10,-32768.0,258.0,226.0
12:33:10,-32768.0,258.0,226.0
12:33:10,-32768.0,258.0,226.0
12:33:10,-32768.0,258.0,226.0
12:33:10,-32768.0,258.0,227.0
12:33:10,-32768.0,258.0,227.0
12:33:10,-32768.0,258.0,227.0
12:33:10,-32768.0,258.0,227.0
12:33:10,-32768.0,259.0,228.0
12:33:10,-32768.0,259.0,228.0
12:33:10,-32768.0,259.0,228.0
12:33:10,-32768.0,259.0,228.0
12:33:10,-32768.0,259.0,227.0
12:33:10,-32768.0,259.0,227.0
12:33:10,-32768.0,259.0,227.0
12:33:10,-32768.0,259.0,227.0
12:33:10,-7225.0,257.0,228.0
12:33:10,-7225.0,257.0,228.0
12:33:10,-7225.0,257.0,228.0
12:33:10,-7225.0,257.0,228.0
12:33:10,-32768.0,258.0,228.0
12:33:10,-32768.0,258.0,228.0
12:33:10,-32768.0,258.0,228.0
12:33:10,-32768.0,258.0,228.0
12:33:10,-32768.0,259.0,227.0
12:33:10,-32768.0,259.0,227.0
12:33:10,-32768.0,259.0,227.0
12:33:10,-32768.0,259.0,227.0
12:33:10,32767.0,258.0,227.0
12:33:10,32767.0,258.0,227.0
12:33:10,32767.0,258.0,227.0
12:33:10,32767.0,258.0,227.0
12:33:10,25127.0,258.0,227.0
12:33:10,25127.0,258.0,227.0
12:33:10,25127.0,258.0,227.0
12:33:10,25127.0,258.0,227.0
12:33:10,-32768.0,259.0,226.0
12:33:10,-32768.0,259.0,226.0
12:33:10,-32768.0,259.0,226.0
12:33:10,-32768.0,259.0,226.0
12:33:10,-32768.0,259.0,227.0
12:33:10,-32768.0,259.0,227.0
12:33:10,-32768.0,259.0,227.0
12:33:10,-32768.0,259.0,227.0
12:33:10,-32768.0,258.0,227.0
12:33:10,-32768.0,258.0,227.0
12:33:10,-32768.0,258.0,227.0
12:33:10,-32768.0,258.0,227.0
12:33:10,-32768.0,257.0,227.0
12:33:10,-32768.0,257.0,227.0
12:33:10,-32768.0,257.0,227.0
12:33:10,-32768.0,257.0,227.0
12:33:10,-16809.0,259.0,227.0
12:33:10,-16809.0,259.0,227.0
12:33:10,-16809.0,259.0,227.0
12:33:10,-16809.0,259.0,227.0
12:33:10,32767.0,259.0,227.0
12:33:10,32767.0,259.0,227.0
12:33:10,32767.0,259.0,227.0
12:33:10,32767.0,259.0,227.0
12:33:10,32324.0,257.0,225.0
12:33:10,32324.0,257.0,225.0
12:33:10,32324.0,257.0,225.0
12:33:10,32324.0,257.0,225.0
12:33:10,-32768.0,256.0,228.0
12:33:10,-32768.0,256.0,228.0
12:33:10,-32768.0,256.0,228.0
12:33:10,-32768.0,256.0,228.0
12:33:10,21259.0,257.0,226.0
12:33:10,21259.0,257.0,226.0
12:33:10,21259.0,257.0,226.0
12:33:10,21259.0,257.0,226.0
12:33:10,32767.0,257.0,226.0
12:33:10,32767.0,257.0,226.0
12:33:10,32767.0,257.0,226.0
12:33:10,32767.0,257.0,226.0
12:33:10,15684.0,258.0,227.0
12:33:10,15684.0,258.0,227.0
12:33:10,15684.0,258.0,227.0
12:33:10,15684.0,258.0,227.0
12:33:10,-32768.0,256.0,226.0
12:33:10,-32768.0,256.0,226.0
12:33:10,-32768.0,256.0,226.0
12:33:10,-32768.0,256.0,226.0
12:33:10,-32768.0,258.0,226.0
12:33:10,-32768.0,258.0,226.0
12:33:10,-32768.0,258.0,226.0
12:33:10,-32768.0,258.0,226.0
12:33:10,-32768.0,257.0,227.0
12:33:10,-32768.0,257.0,227.0
12:33:10,-32768.0,257.0,227.0
12:33:10,-32768.0,257.0,227.0
12:33:10,-32768.0,258.0,226.0
12:33:10,-32768.0,258.0,226.0
12:33:10,-32768.0,258.0,226.0
12:33:10,-32768.0,258.0,226.0
12:33:10,-32768.0,257.0,227.0
12:33:10,-32768.0,257.0,227.0
12:33:10,-32768.0,257.0,227.0
12:33:10,-32768.0,257.0,227.0
12:33:10,11742.0,257.0,227.0
12:33:10,11742.0,257.0,227.0
12:33:10,11742.0,257.0,227.0
12:33:10,11742.0,257.0,227.0
12:33:10,-32768.0,259.0,227.0
12:33:10,-32768.0,259.0,227.0
12:33:10,-32768.0,259.0,227.0
12:33:10,-32768.0,259.0,227.0
12:33:10,3066.0,258.0,228.0
12:33:10,3066.0,258.0,228.0
12:33:10,3066.0,258.0,228.0
12:33:10,3066.0,258.0,228.0
12:33:10,32767.0,257.0,226.0
12:33:10,32767.0,257.0,226.0
12:33:10,32767.0,257.0,226.0
12:33:10,32767.0,257.0,226.0
12:33:10,-18203.0,258.0,228.0
12:33:10,-18203.0,258.0,228.0
12:33:10,-18203.0,258.0,228.0
12:33:10,-18203.0,258.0,228.0
12:33:10,-32768.0,258.0,228.0
12:33:10,-32768.0,258.0,228.0
12:33:10,-32768.0,258.0,228.0
12:33:10,-32768.0,258.0,228.0
12:33:10,-32768.0,258.0,228.0
12:33:10,-32768.0,258.0,228.0
12:33:10,-32768.0,258.0,228.0
12:33:10,-32768.0,258.0,228.0
12:33:10,-32768.0,258.0,230.0
12:33:10,-32768.0,258.0,230.0
12:33:10,-32768.0,258.0,230.0
12:33:10,-32768.0,258.0,230.0
12:33:10,-32768.0,259.0,228.0
12:33:10,-32768.0,259.0,228.0
12:33:10,-32768.0,259.0,228.0
12:33:10,-32768.0,259.0,228.0
12:33:10,-32768.0,259.0,228.0
12:33:10,-32768.0,259.0,228.0
12:33:10,-32768.0,259.0,228.0
12:33:10,-32768.0,259.0,228.0
12:33:10,-32768.0,259.0,230.0
12:33:10,-32768.0,259.0,230.0
12:33:10,-32768.0,259.0,230.0
12:33:10,-32768.0,259.0,230.0
12:33:10,32767.0,260.0,228.0
12:33:10,32767.0,260.0,228.0
12:33:10,32767.0,260.0,228.0
12:33:10,32767.0,260.0,228.0
12:33:10,32767.0,258.0,228.0
12:33:10,32767.0,258.0,228.0
12:33:10,32767.0,258.0,228.0
12:33:10,32767.0,258.0,228.0
12:33:10,32767.0,260.0,230.0
12:33:10,32767.0,260.0,230.0
12:33:11,32767.0,260.0,230.0
12:33:11,32767.0,260.0,230.0
12:33:11,32767.0,261.0,230.0
12:33:11,32767.0,261.0,230.0
12:33:11,32767.0,261.0,230.0
12:33:11,32767.0,261.0,230.0
12:33:11,32767.0,261.0,230.0
12:33:11,32767.0,261.0,230.0
12:33:11,32767.0,261.0,230.0
12:33:11,32767.0,261.0,230.0
12:33:11,2684.0,261.0,230.0
12:33:11,2684.0,261.0,230.0
12:33:11,2684.0,261.0,230.0
12:33:11,2684.0,261.0,230.0
12:33:11,-32768.0,263.0,231.0
12:33:11,-32768.0,263.0,231.0
12:33:11,-32768.0,263.0,231.0
12:33:11,-32768.0,263.0,231.0
12:33:11,-32768.0,262.0,230.0
12:33:11,-32768.0,262.0,230.0
12:33:11,-32768.0,262.0,230.0
12:33:11,-32768.0,262.0,230.0
12:33:11,-32768.0,260.0,231.0
12:33:11,-32768.0,260.0,231.0
12:33:11,-32768.0,260.0,231.0
12:33:11,-32768.0,260.0,231.0
12:33:11,-32768.0,261.0,231.0
12:33:11,-32768.0,261.0,231.0
12:33:11,-32768.0,261.0,231.0
12:33:11,-32768.0,261.0,231.0
12:33:11,-18203.0,262.0,232.0
12:33:11,-18203.0,262.0,232.0
12:33:11,-18203.0,262.0,232.0
12:33:11,-18203.0,262.0,232.0
12:33:11,32767.0,262.0,232.0
12:33:11,32767.0,262.0,232.0
12:33:11,32767.0,262.0,232.0
12:33:11,32767.0,262.0,232.0
12:33:11,32767.0,262.0,231.0
12:33:11,32767.0,262.0,231.0
12:33:11,32767.0,262.0,231.0
12:33:11,32767.0,262.0,231.0
12:33:11,32767.0,260.0,230.0
12:33:11,32767.0,260.0,230.0
12:33:11,32767.0,260.0,230.0
12:33:11,32767.0,260.0,230.0
12:33:11,32767.0,263.0,231.0
12:33:11,32767.0,263.0,231.0
12:33:11,32767.0,263.0,231.0
12:33:11,32767.0,263.0,231.0
12:33:11,32767.0,261.0,231.0
12:33:11,32767.0,261.0,231.0
12:33:11,32767.0,261.0,231.0
12:33:11,32767.0,261.0,231.0
12:33:11,32767.0,261.0,232.0
12:33:11,32767.0,261.0,232.0
12:33:11,32767.0,261.0,232.0
12:33:11,32767.0,261.0,232.0
12:33:11,-32768.0,261.0,231.0
12:33:11,-32768.0,261.0,231.0
12:33:11,-32768.0,261.0,231.0
12:33:11,-32768.0,261.0,231.0
12:33:11,-32768.0,262.0,232.0
12:33:11,-32768.0,262.0,232.0
12:33:11,-32768.0,262.0,232.0
12:33:11,-32768.0,262.0,232.0
12:33:11,-32768.0,262.0,232.0
12:33:11,-32768.0,262.0,232.0
12:33:11,-32768.0,262.0,232.0
12:33:11,-32768.0,262.0,232.0
12:33:11,-32768.0,261.0,231.0
12:33:11,-32768.0,261.0,231.0
12:33:11,-32768.0,261.0,231.0
12:33:11,-32768.0,261.0,231.0
12:33:11,-32768.0,263.0,232.0
12:33:11,-32768.0,263.0,232.0
12:33:11,-32768.0,263.0,232.0
12:33:11,-32768.0,263.0,232.0
12:33:11,-32768.0,262.0,232.0
12:33:11,-32768.0,262.0,232.0
12:33:11,-32768.0,262.0,232.0
12:33:11,-32768.0,262.0,232.0
12:33:11,-32768.0,263.0,232.0
12:33:11,-32768.0,263.0,232.0
12:33:11,-32768.0,263.0,232.0
12:33:11,-32768.0,263.0,232.0
12:33:11,-32483.0,262.0,231.0
12:33:11,-32483.0,262.0,231.0
12:33:11,-32483.0,262.0,231.0
12:33:11,-32483.0,262.0,231.0
12:33:11,-32768.0,262.0,232.0
12:33:11,-32768.0,262.0,232.0
12:33:11,-32768.0,262.0,232.0
12:33:11,-32768.0,262.0,232.0
12:33:11,-32768.0,264.0,231.0
12:33:11,-32768.0,264.0,231.0
12:33:11,-32768.0,264.0,231.0
12:33:11,-32768.0,264.0,231.0
12:33:11,32767.0,263.0,232.0
12:33:11,32767.0,263.0,232.0
12:33:11,32767.0,263.0,232.0
12:33:11,32767.0,263.0,232.0
12:33:11,-32768.0,262.0,233.0
12:33:11,-32768.0,262.0,233.0
12:33:11,-32768.0,262.0,233.0
12:33:11,-32768.0,262.0,233.0
12:33:11,-32768.0,263.0,230.0
12:33:11,-32768.0,263.0,230.0
12:33:11,-32768.0,263.0,230.0
12:33:11,-32768.0,263.0,230.0
12:33:11,-32768.0,263.0,232.0
12:33:11,-32768.0,263.0,232.0
12:33:11,-32768.0,263.0,232.0
12:33:11,-32768.0,263.0,232.0
12:33:11,-32768.0,263.0,233.0
12:33:11,-32768.0,263.0,233.0
12:33:11,-32768.0,263.0,233.0
12:33:11,-32768.0,263.0,233.0
12:33:11,-32768.0,263.0,231.0
12:33:11,-32768.0,263.0,231.0
12:33:11,-32768.0,263.0,231.0
12:33:11,-32768.0,263.0,231.0
12:33:11,-32518.0,263.0,232.0
12:33:11,-32518.0,263.0,232.0
12:33:11,-32518.0,263.0,232.0
12:33:11,-32518.0,263.0,232.0
12:33:11,32767.0,263.0,232.0
12:33:11,32767.0,263.0,232.0
12:33:11,32767.0,263.0,232.0
12:33:11,32767.0,263.0,232.0
12:33:11,32767.0,262.0,232.0
12:33:11,32767.0,262.0,232.0
12:33:11,32767.0,262.0,232.0
12:33:11,32767.0,262.0,232.0
12:33:11,32751.0,262.0,232.0
12:33:11,32751.0,262.0,232.0
12:33:11,32751.0,262.0,232.0
12:33:11,32751.0,262.0,232.0
12:33:11,4628.0,264.0,233.0
12:33:11,4628.0,264.0,233.0
12:33:11,4628.0,264.0,233.0
12:33:11,4628.0,264.0,233.0
12:33:11,32767.0,263.0,231.0
12:33:11,32767.0,263.0,231.0
12:33:11,32767.0,263.0,231.0
12:33:11,32767.0,263.0,231.0
12:33:11,-32767.0,263.0,232.0
12:33:11,-32767.0,263.0,232.0
12:33:11,-32767.0,263.0,232.0
12:33:11,-32767.0,263.0,232.0
12:33:11,-32768.0,263.0,232.0
12:33:11,-32768.0,263.0,232.0
12:33:11,-32768.0,263.0,232.0
12:33:11,-32768.0,263.0,232.0
12:33:11,-32768.0,263.0,231.0
12:33:11,-32768.0,263.0,231.0
12:33:11,-32768.0,263.0,231.0
12:33:11,-32768.0,263.0,231.0
12:33:11,-32768.0,262.0,231.0
12:33:11,-32768.0,262.0,231.0
12:33:11,-32768.0,262.0,231.0
12:33:11,-32768.0,262.0,231.0
12:33:11,-32768.0,262.0,231.0
12:33:11,-32768.0,262.0,231.0
12:33:11,-32768.0,262.0,231.0
12:33:11,-32768.0,262.0,231.0
12:33:11,-32768.0,262.0,231.0
12:33:11,-32768.0,262.0,231.0
12:33:11,-32768.0,262.0,231.0
12:33:11,-32768.0,262.0,231.0
12:33:11,-32768.0,262.0,231.0
12:33:11,-32768.0,262.0,231.0
12:33:11,-32768.0,262.0,231.0
12:33:11,-32768.0,262.0,231.0
12:33:11,-32768.0,262.0,231.0
12:33:11,-32768.0,262.0,231.0
12:33:11,-32768.0,262.0,231.0
12:33:11,-32768.0,262.0,231.0
12:33:11,-32768.0,263.0,229.0
12:33:11,-32768.0,263.0,229.0
12:33:11,-32768.0,263.0,229.0
12:33:11,-32768.0,263.0,229.0
12:33:11,-32768.0,260.0,230.0
12:33:11,-32768.0,260.0,230.0
12:33:11,-32768.0,260.0,230.0
12:33:11,-32768.0,260.0,230.0
12:33:11,-32768.0,261.0,230.0
12:33:11,-32768.0,261.0,230.0
12:33:11,-32768.0,261.0,230.0
12:33:11,-32768.0,261.0,230.0
12:33:11,-32768.0,261.0,228.0
12:33:11,-32768.0,261.0,228.0
12:33:11,-32768.0,261.0,228.0
12:33:11,-32768.0,261.0,228.0
12:33:11,-32768.0,261.0,230.0
12:33:11,-32768.0,261.0,230.0
12:33:11,-32768.0,261.0,230.0
12:33:11,-32768.0,261.0,230.0
12:33:11,-32768.0,260.0,228.0
12:33:11,-32768.0,260.0,228.0
12:33:12,-32768.0,260.0,228.0
12:33:12,-32768.0,260.0,228.0
12:33:12,-32768.0,261.0,228.0
12:33:12,-32768.0,261.0,228.0
12:33:12,-32768.0,261.0,228.0
12:33:12,-32768.0,261.0,228.0
12:33:12,-32768.0,262.0,229.0
12:33:12,-32768.0,262.0,229.0
12:33:12,-32768.0,262.0,229.0
12:33:12,-32768.0,262.0,229.0
12:33:12,-32768.0,259.0,228.0
12:33:12,-32768.0,259.0,228.0
12:33:12,-32768.0,259.0,228.0
12:33:12,-32768.0,259.0,228.0
12:33:12,-32768.0,260.0,228.0
12:33:12,-32768.0,260.0,228.0
12:33:12,-32768.0,260.0,228.0
12:33:12,-32768.0,260.0,228.0
12:33:12,-32768.0,260.0,228.0
12:33:12,-32768.0,260.0,228.0
12:33:12,-32768.0,260.0,228.0
12:33:12,-32768.0,260.0,228.0
12:33:12,32767.0,259.0,228.0
12:33:12,32767.0,259.0,228.0
12:33:12,32767.0,259.0,228.0
12:33:12,32767.0,259.0,228.0
12:33:12,32767.0,258.0,227.0
12:33:12,32767.0,258.0,227.0
12:33:12,32767.0,258.0,227.0
12:33:12,32767.0,258.0,227.0
12:33:12,32676.0,261.0,229.0
12:33:12,32676.0,261.0,229.0
12:33:12,32676.0,261.0,229.0
12:33:12,32676.0,261.0,229.0
12:33:12,-32768.0,259.0,227.0
12:33:12,-32768.0,259.0,227.0
12:33:12,-32768.0,259.0,227.0
12:33:12,-32768.0,259.0,227.0
12:33:12,-32768.0,258.0,228.0
12:33:12,-32768.0,258.0,228.0
12:33:12,-32768.0,258.0,228.0
12:33:12,-32768.0,258.0,228.0
12:33:12,-32383.0,259.0,228.0
12:33:12,-32383.0,259.0,228.0
12:33:12,-32383.0,259.0,228.0
12:33:12,-32383.0,259.0,228.0
12:33:12,32767.0,259.0,227.0
12:33:12,32767.0,259.0,227.0
12:33:12,32767.0,259.0,227.0
12:33:12,32767.0,259.0,227.0
12:33:12,-31706.0,257.0,228.0
12:33:12,-31706.0,257.0,228.0
12:33:12,-31706.0,257.0,228.0
12:33:12,-31706.0,257.0,228.0
12:33:12,-32768.0,259.0,226.0
12:33:12,-32768.0,259.0,226.0
12:33:12,-32768.0,259.0,226.0
12:33:12,-32768.0,259.0,226.0
12:33:12,-32768.0,258.0,227.0
12:33:12,-32768.0,258.0,227.0
12:33:12,-32768.0,258.0,227.0
12:33:12,-32768.0,258.0,227.0
12:33:12,-32768.0,257.0,228.0
12:33:12,-32768.0,257.0,228.0
12:33:12,-32768.0,257.0,228.0
12:33:12,-32768.0,257.0,228.0
12:33:12,32289.0,258.0,228.0
12:33:12,32289.0,258.0,228.0
12:33:12,32289.0,258.0,228.0
12:33:12,32289.0,258.0,228.0
12:33:12,-32768.0,258.0,228.0
12:33:12,-32768.0,258.0,228.0
12:33:12,-32768.0,258.0,228.0
12:33:12,-32768.0,258.0,228.0
12:33:12,-32768.0,259.0,228.0
12:33:12,-32768.0,259.0,228.0
12:33:12,-32768.0,259.0,228.0
12:33:12,-32768.0,259.0,228.0
12:33:12,-32768.0,260.0,226.0
12:33:12,-32768.0,260.0,226.0
12:33:12,-32768.0,260.0,226.0
12:33:12,-32768.0,260.0,226.0
12:33:12,-32768.0,258.0,227.0
12:33:12,-32768.0,258.0,227.0
12:33:12,-32768.0,258.0,227.0
12:33:12,-32768.0,258.0,227.0
12:33:12,-32768.0,258.0,227.0
12:33:12,-32768.0,258.0,227.0
12:33:12,-32768.0,258.0,227.0
12:33:12,-32768.0,258.0,227.0
12:33:12,-23106.0,259.0,226.0
12:33:12,-23106.0,259.0,226.0
12:33:12,-23106.0,259.0,226.0
12:33:12,-23106.0,259.0,226.0
12:33:12,32767.0,259.0,227.0
12:33:12,32767.0,259.0,227.0
12:33:12,32767.0,259.0,227.0
12:33:12,32767.0,259.0,227.0
12:33:12,8291.0,258.0,226.0
12:33:12,8291.0,258.0,226.0
12:33:12,8291.0,258.0,226.0
12:33:12,8291.0,258.0,226.0
12:33:12,-32768.0,257.0,227.0
12:33:12,-32768.0,257.0,227.0
12:33:12,-32768.0,257.0,227.0
12:33:12,-32768.0,257.0,227.0
12:33:12,29735.0,258.0,226.0
12:33:12,29735.0,258.0,226.0
12:33:12,29735.0,258.0,226.0
12:33:12,29735.0,258.0,226.0
12:33:12,-27221.0,258.0,226.0
12:33:12,-27221.0,258.0,226.0
12:33:12,-27221.0,258.0,226.0
12:33:12,-27221.0,258.0,226.0
12:33:12,-32768.0,257.0,227.0
12:33:12,-32768.0,257.0,227.0
12:33:12,-32768.0,257.0,227.0
12:33:12,-32768.0,257.0,227.0
12:33:12,-32768.0,259.0,227.0
12:33:12,-32768.0,259.0,227.0
12:33:12,-32768.0,259.0,227.0
12:33:12,-32768.0,259.0,227.0
12:33:12,-32768.0,257.0,227.0
12:33:12,-32768.0,257.0,227.0
12:33:12,-32768.0,257.0,227.0
12:33:12,-32768.0,257.0,227.0
12:33:12,-32768.0,258.0,227.0
12:33:12,-32768.0,258.0,227.0
12:33:12,-32768.0,258.0,227.0
12:33:12,-32768.0,258.0,227.0
12:33:12,-32768.0,257.0,226.0
12:33:12,-32768.0,257.0,226.0
12:33:12,-32768.0,257.0,226.0
12:33:12,-32768.0,257.0,226.0
12:33:12,-32768.0,259.0,227.0
12:33:12,-32768.0,259.0,227.0
12:33:12,-32768.0,259.0,227.0
12:33:12,-32768.0,259.0,227.0
12:33:12,29735.0,260.0,227.0
12:33:12,29735.0,260.0,227.0
12:33:12,29735.0,260.0,227.0
12:33:12,29735.0,260.0,227.0
12:33:12,-32768.0,257.0,227.0
12:33:12,-32768.0,257.0,227.0
12:33:12,-32768.0,257.0,227.0
12:33:12,-32768.0,257.0,227.0
12:33:12,-32768.0,257.0,229.0
12:33:12,-32768.0,257.0,229.0
12:33:12,-32768.0,257.0,229.0
12:33:12,-32768.0,257.0,229.0
12:33:12,-32768.0,259.0,227.0
12:33:12,-32768.0,259.0,227.0
12:33:12,-32768.0,259.0,227.0
12:33:12,-32768.0,259.0,227.0
12:33:12,-32768.0,259.0,227.0
12:33:12,-32768.0,259.0,227.0
12:33:12,-32768.0,259.0,227.0
12:33:12,-32768.0,259.0,227.0
12:33:12,-32768.0,259.0,227.0
12:33:12,-32768.0,259.0,227.0
12:33:12,-32768.0,259.0,227.0
12:33:12,-32768.0,259.0,227.0
12:33:12,-32768.0,260.0,230.0
12:33:12,-32768.0,260.0,230.0
12:33:12,-32768.0,260.0,230.0
12:33:12,-32768.0,260.0,230.0
12:33:12,-32678.0,259.0,228.0
12:33:12,-32678.0,259.0,228.0
12:33:12,-32678.0,259.0,228.0
12:33:12,-32678.0,259.0,228.0
12:33:12,-32768.0,260.0,229.0
12:33:12,-32768.0,260.0,229.0
12:33:12,-32768.0,260.0,229.0
12:33:12,-32768.0,260.0,229.0
12:33:12,28015.0,259.0,230.0
12:33:12,28015.0,259.0,230.0
12:33:12,28015.0,259.0,230.0
12:33:12,28015.0,259.0,230.0
12:33:12,-32768.0,259.0,228.0
12:33:12,-32768.0,259.0,228.0
12:33:12,-32768.0,259.0,228.0
12:33:12,-32768.0,259.0,228.0
12:33:12,-32768.0,259.0,230.0
12:33:12,-32768.0,259.0,230.0
12:33:12,-32768.0,259.0,230.0
12:33:12,-32768.0,259.0,230.0
12:33:12,-32768.0,259.0,230.0
12:33:12,-32768.0,259.0,230.0
12:33:12,-32768.0,259.0,230.0
12:33:12,-32768.0,259.0,230.0
12:33:12,-32768.0,259.0,229.0
12:33:12,-32768.0,259.0,229.0
12:33:12,-32768.0,259.0,229.0
12:33:12,-32768.0,259.0,229.0
12:33:12,-32768.0,261.0,230.0
12:33:12,-32768.0,261.0,230.0
12:33:12,-32768.0,261.0,230.0
12:33:12,-32768.0,261.0,230.0
12:33:12,32753.0,261.0,229.0
12:33:12,32753.0,261.0,229.0
12:33:12,32753.0,261.0,229.0
12:33:13,32753.0,261.0,229.0
12:33:13,17898.0,261.0,229.0
12:33:13,17898.0,261.0,229.0
12:33:13,17898.0,261.0,229.0
12:33:13,17898.0,261.0,229.0
12:33:13,-32768.0,261.0,231.0
12:33:13,-32768.0,261.0,231.0
12:33:13,-32768.0,261.0,231.0
12:33:13,-32768.0,261.0,231.0
12:33:13,-32768.0,261.0,230.0
12:33:13,-32768.0,261.0,230.0
12:33:13,-32768.0,261.0,230.0
12:33:13,-32768.0,261.0,230.0
12:33:13,16331.0,262.0,231.0
12:33:13,16331.0,262.0,231.0
12:33:13,16331.0,262.0,231.0
12:33:13,16331.0,262.0,231.0
12:33:13,-32310.0,261.0,231.0
12:33:13,-32310.0,261.0,231.0
12:33:13,-32310.0,261.0,231.0
12:33:13,-32310.0,261.0,231.0
12:33:13,-32768.0,261.0,231.0
12:33:13,-32768.0,261.0,231.0
12:33:13,-32768.0,261.0,231.0
12:33:13,-32768.0,261.0,231.0
12:33:13,-32768.0,262.0,231.0
12:33:13,-32768.0,262.0,231.0
12:33:13,-32768.0,262.0,231.0
12:33:13,-32768.0,262.0,231.0
12:33:13,-32768.0,263.0,231.0
12:33:13,-32768.0,263.0,231.0
12:33:13,-32768.0,263.0,231.0
12:33:13,-32768.0,263.0,231.0
12:33:13,-32768.0,261.0,232.0
12:33:13,-32768.0,261.0,232.0
12:33:13,-32768.0,261.0,232.0
12:33:13,-32768.0,261.0,232.0
12:33:13,-32768.0,263.0,231.0
12:33:13,-32768.0,263.0,231.0
12:33:13,-32768.0,263.0,231.0
12:33:13,-32768.0,263.0,231.0
12:33:13,-32768.0,263.0,230.0
12:33:13,-32768.0,263.0,230.0
12:33:13,-32768.0,263.0,230.0
12:33:13,-32768.0,263.0,230.0
12:33:13,-32767.0,264.0,230.0
12:33:13,-32767.0,264.0,230.0
12:33:13,-32767.0,264.0,230.0
12:33:13,-32767.0,264.0,230.0
12:33:13,21060.0,262.0,231.0
12:33:13,21060.0,262.0,231.0
12:33:13,21060.0,262.0,231.0
12:33:13,21060.0,262.0,231.0
12:33:13,-32768.0,262.0,230.0
12:33:13,-32768.0,262.0,230.0
12:33:13,-32768.0,262.0,230.0
12:33:13,-32768.0,262.0,230.0
12:33:13,-32768.0,261.0,232.0
12:33:13,-32768.0,261.0,232.0
12:33:13,-32768.0,261.0,232.0
12:33:13,-32768.0,261.0,232.0
12:33:13,32765.0,262.0,231.0
12:33:13,32765.0,262.0,231.0
12:33:13,32765.0,262.0,231.0
12:33:13,32765.0,262.0,231.0
12:33:13,-32768.0,260.0,232.0
12:33:13,-32768.0,260.0,232.0
12:33:13,-32768.0,260.0,232.0
12:33:13,-32768.0,260.0,232.0
12:33:13,-32768.0,263.0,230.0
12:33:13,-32768.0,263.0,230.0
12:33:13,-32768.0,263.0,230.0
12:33:13,-32768.0,263.0,230.0
12:33:13,-32768.0,262.0,230.0
12:33:13,-32768.0,262.0,230.0
12:33:13,-32768.0,262.0,230.0
12:33:13,-32768.0,262.0,230.0
12:33:13,-32768.0,262.0,232.0
12:33:13,-32768.0,262.0,232.0
12:33:13,-32768.0,262.0,232.0
12:33:13,-32768.0,262.0,232.0
12:33:13,-32768.0,263.0,230.0
12:33:13,-32768.0,263.0,230.0
12:33:13,-32768.0,263.0,230.0
12:33:13,-32768.0,263.0,230.0
12:33:13,-32768.0,262.0,232.0
12:33:13,-32768.0,262.0,232.0
12:33:13,-32768.0,262.0,232.0
12:33:13,-32768.0,262.0,232.0
12:33:13,22315.0,262.0,232.0
12:33:13,22315.0,262.0,232.0
12:33:13,22315.0,262.0,232.0
12:33:13,22315.0,262.0,232.0
12:33:13,32767.0,262.0,232.0
12:33:13,32767.0,262.0,232.0
12:33:13,32767.0,262.0,232.0
12:33:13,32767.0,262.0,232.0
12:33:13,32767.0,263.0,231.0
12:33:13,32767.0,263.0,231.0
12:33:13,32767.0,263.0,231.0
12:33:13,32767.0,263.0,231.0
12:33:13,32767.0,262.0,231.0
12:33:13,32767.0,262.0,231.0
12:33:13,32767.0,262.0,231.0
12:33:13,32767.0,262.0,231.0
12:33:13,32767.0,263.0,232.0
12:33:13,32767.0,263.0,232.0
12:33:13,32767.0,263.0,232.0
12:33:13,32767.0,263.0,232.0
12:33:13,32665.0,262.0,232.0
12:33:13,32665.0,262.0,232.0
12:33:13,32665.0,262.0,232.0
12:33:13,32665.0,262.0,232.0
12:33:13,-32768.0,261.0,231.0
12:33:13,-32768.0,261.0,231.0
12:33:13,-32768.0,261.0,231.0
12:33:13,-32768.0,261.0,231.0
12:33:13,-32768.0,263.0,233.0
12:33:13,-32768.0,263.0,233.0
12:33:13,-32768.0,263.0,233.0
12:33:13,-32768.0,263.0,233.0
12:33:13,-32768.0,263.0,232.0
12:33:13,-32768.0,263.0,232.0
12:33:13,-32768.0,263.0,232.0
12:33:13,-32768.0,263.0,232.0
12:33:13,-32768.0,262.0,232.0
12:33:13,-32768.0,262.0,232.0
12:33:13,-32768.0,262.0,232.0
12:33:13,-32768.0,262.0,232.0
12:33:13,-32768.0,263.0,233.0
12:33:13,-32768.0,263.0,233.0
12:33:13,-32768.0,263.0,233.0
12:33:13,-32768.0,263.0,233.0
12:33:13,-32768.0,263.0,231.0
12:33:13,-32768.0,263.0,231.0
12:33:13,-32768.0,263.0,231.0
12:33:13,-32768.0,263.0,231.0
12:33:13,-23312.0,262.0,232.0
12:33:13,-23312.0,262.0,232.0
12:33:13,-23312.0,262.0,232.0
12:33:13,-23312.0,262.0,232.0
12:33:13,-32768.0,261.0,232.0
12:33:13,-32768.0,261.0,232.0
12:33:13,-32768.0,261.0,232.0
12:33:13,-32768.0,261.0,232.0
12:33:13,-32768.0,262.0,231.0
12:33:13,-32768.0,262.0,231.0
12:33:13,-32768.0,262.0,231.0
12:33:13,-32768.0,262.0,231.0
12:33:13,32767.0,262.0,231.0
12:33:13,32767.0,262.0,231.0
12:33:13,32767.0,262.0,231.0
12:33:13,32767.0,262.0,231.0
12:33:13,-32762.0,262.0,231.0
12:33:13,-32762.0,262.0,231.0
12:33:13,-32762.0,262.0,231.0
12:33:13,-32762.0,262.0,231.0
12:33:13,-17281.0,262.0,231.0
12:33:13,-17281.0,262.0,231.0
12:33:13,-17281.0,262.0,231.0
12:33:13,-17281.0,262.0,231.0
12:33:13,32767.0,261.0,230.0
12:33:13,32767.0,261.0,230.0
12:33:13,32767.0,261.0,230.0
12:33:13,32767.0,261.0,230.0
12:33:13,-32768.0,263.0,231.0
12:33:13,-32768.0,263.0,231.0
12:33:13,-32768.0,263.0,231.0
12:33:13,-32768.0,263.0,231.0
12:33:13,32627.0,262.0,229.0
12:33:13,32627.0,262.0,229.0
12:33:13,32627.0,262.0,229.0
12:33:13,32627.0,262.0,229.0
12:33:13,-32768.0,261.0,229.0
12:33:13,-32768.0,261.0,229.0
12:33:13,-32768.0,261.0,229.0
12:33:13,-32768.0,261.0,229.0
12:33:13,-32768.0,262.0,230.0
12:33:13,-32768.0,262.0,230.0
12:33:13,-32768.0,262.0,230.0
12:33:13,-32768.0,262.0,230.0
12:33:13,-32768.0,261.0,230.0
12:33:13,-32768.0,261.0,230.0
12:33:13,-32768.0,261.0,230.0
12:33:13,-32768.0,261.0,230.0
12:33:13,-32768.0,261.0,229.0
12:33:13,-32768.0,261.0,229.0
12:33:13,-32768.0,261.0,229.0
12:33:13,-32768.0,261.0,229.0
12:33:13,-5725.0,261.0,229.0
12:33:13,-5725.0,261.0,229.0
12:33:13,-5725.0,261.0,229.0
12:33:13,-5725.0,261.0,229.0
12:33:13,-24320.0,261.0,228.0
12:33:13,-24320.0,261.0,228.0
12:33:13,-24320.0,261.0,228.0
12:33:13,-24320.0,261.0,228.0
12:33:13,-32768.0,259.0,229.0
12:33:13,-32768.0,259.0,229.0
12:33:13,-32768.0,259.0,229.0
12:33:13,-32768.0,259.0,229.0
12:33:14,-32768.0,261.0,229.0
12:33:14,-32768.0,261.0,229.0
12:33:14,-32768.0,261.0,229.0
12:33:14,-32768.0,261.0,229.0
12:33:14,-32768.0,261.0,228.0
12:33:14,-32768.0,261.0,228.0
12:33:14,-32768.0,261.0,228.0
12:33:14,-32768.0,261.0,228.0
12:33:14,-32768.0,260.0,227.0
12:33:14,-32768.0,260.0,227.0
12:33:14,-32768.0,260.0,227.0
12:33:14,-32768.0,260.0,227.0
12:33:14,-32768.0,260.0,228.0
12:33:14,-32768.0,260.0,228.0
12:33:14,-32768.0,260.0,228.0
12:33:14,-32768.0,260.0,228.0
12:33:14,-32768.0,259.0,228.0
12:33:14,-32768.0,259.0,228.0
12:33:14,-32768.0,259.0,228.0
12:33:14,-32768.0,259.0,228.0
12:33:14,-32768.0,261.0,227.0
12:33:14,-32768.0,261.0,227.0
12:33:14,-32768.0,261.0,227.0
12:33:14,-32768.0,261.0,227.0
12:33:14,-32768.0,258.0,227.0
12:33:14,-32768.0,258.0,227.0
12:33:14,-32768.0,258.0,227.0
12:33:14,-32768.0,258.0,227.0
12:33:14,-32768.0,257.0,228.0
12:33:14,-32768.0,257.0,228.0
12:33:14,-32768.0,257.0,228.0
12:33:14,-32768.0,257.0,228.0
12:33:14,-32768.0,259.0,228.0
12:33:14,-32768.0,259.0,228.0
12:33:14,-32768.0,259.0,228.0
12:33:14,-32768.0,259.0,228.0
12:33:14,-32768.0,258.0,226.0
12:33:14,-32768.0,258.0,226.0
12:33:14,-32768.0,258.0,226.0
12:33:14,-32768.0,258.0,226.0
12:33:14,-32768.0,257.0,227.0
12:33:14,-32768.0,257.0,227.0
12:33:14,-32768.0,257.0,227.0
12:33:14,-32768.0,257.0,227.0
12:33:14,-32768.0,259.0,226.0
12:33:14,-32768.0,259.0,226.0
12:33:14,-32768.0,259.0,226.0
12:33:14,-32768.0,259.0,226.0
12:33:14,-32768.0,258.0,228.0
12:33:14,-32768.0,258.0,228.0
12:33:14,-32768.0,258.0,228.0
12:33:14,-32768.0,258.0,228.0
12:33:14,-32768.0,259.0,228.0
12:33:14,-32768.0,259.0,228.0
12:33:14,-32768.0,259.0,228.0
12:33:14,-32768.0,259.0,228.0
12:33:14,-32768.0,258.0,228.0
12:33:14,-32768.0,258.0,228.0
12:33:14,-32768.0,258.0,228.0
12:33:14,-32768.0,258.0,228.0
12:33:14,-31297.0,258.0,228.0
12:33:14,-31297.0,258.0,228.0
12:33:14,-31297.0,258.0,228.0
12:33:14,-31297.0,258.0,228.0
12:33:14,-32768.0,257.0,227.0
12:33:14,-32768.0,257.0,227.0
12:33:14,-32768.0,257.0,227.0
12:33:14,-32768.0,257.0,227.0
12:33:14,-32768.0,259.0,227.0
12:33:14,-32768.0,259.0,227.0
12:33:14,-32768.0,259.0,227.0
12:33:14,-32768.0,259.0,227.0
12:33:14,-32768.0,258.0,227.0
12:33:14,-32768.0,258.0,227.0
12:33:14,-32768.0,258.0,227.0
12:33:14,-32768.0,258.0,227.0
12:33:14,-32768.0,258.0,226.0
12:33:14,-32768.0,258.0,226.0
12:33:14,-32768.0,258.0,226.0
12:33:14,-32768.0,258.0,226.0
12:33:14,23991.0,258.0,226.0
12:33:14,23991.0,258.0,226.0
12:33:14,23991.0,258.0,226.0
12:33:14,23991.0,258.0,226.0
12:33:14,19022.0,258.0,227.0
12:33:14,19022.0,258.0,227.0
12:33:14,19022.0,258.0,227.0
12:33:14,19022.0,258.0,227.0
12:33:14,-32768.0,257.0,227.0
12:33:14,-32768.0,257.0,227.0
12:33:14,-32768.0,257.0,227.0
12:33:14,-32768.0,257.0,227.0
12:33:14,-32768.0,257.0,225.0
12:33:14,-32768.0,257.0,225.0
12:33:14,-32768.0,257.0,225.0
12:33:14,-32768.0,257.0,225.0
12:33:14,-32768.0,258.0,226.0
12:33:14,-32768.0,258.0,226.0
12:33:14,-32768.0,258.0,226.0
12:33:14,-32768.0,258.0,226.0
12:33:14,-18269.0,258.0,225.0
12:33:14,-18269.0,258.0,225.0
12:33:14,-18269.0,258.0,225.0
12:33:14,-18269.0,258.0,225.0
12:33:14,-32768.0,258.0,225.0
12:33:14,-32768.0,258.0,225.0
12:33:14,-32768.0,258.0,225.0
12:33:14,-32768.0,258.0,225.0
12:33:14,-32768.0,257.0,226.0
12:33:14,-32768.0,257.0,226.0
12:33:14,-32768.0,257.0,226.0
12:33:14,-32768.0,257.0,226.0
12:33:14,-32768.0,258.0,227.0
12:33:14,-32768.0,258.0,227.0
12:33:14,-32768.0,258.0,227.0
12:33:14,-32768.0,258.0,227.0
12:33:14,-28713.0,258.0,227.0
12:33:14,-28713.0,258.0,227.0
12:33:14,-28713.0,258.0,227.0
12:33:14,-28713.0,258.0,227.0
12:33:14,-23712.0,258.0,228.0
12:33:14,-23712.0,258.0,228.0
12:33:14,-23712.0,258.0,228.0
12:33:14,-23712.0,258.0,228.0
12:33:14,-32768.0,259.0,228.0
12:33:14,-32768.0,259.0,228.0
12:33:14,-32768.0,259.0,228.0
12:33:14,-32768.0,259.0,228.0
12:33:14,-32768.0,258.0,226.0
12:33:14,-32768.0,258.0,226.0
12:33:14,-32768.0,258.0,226.0
12:33:14,-32768.0,258.0,226.0
12:33:14,-32768.0,258.0,228.0
12:33:14,-32768.0,258.0,228.0
12:33:14,-32768.0,258.0,228.0
12:33:14,-32768.0,258.0,228.0
12:33:14,-32768.0,258.0,227.0
12:33:14,-32768.0,258.0,227.0
12:33:14,-32768.0,258.0,227.0
12:33:14,-32768.0,258.0,227.0
12:33:14,-32768.0,257.0,227.0
12:33:14,-32768.0,257.0,227.0
12:33:14,-32768.0,257.0,227.0
12:33:14,-32768.0,257.0,227.0
12:33:14,-32768.0,258.0,229.0
12:33:14,-32768.0,258.0,229.0
12:33:14,-32768.0,258.0,229.0
12:33:14,-32768.0,258.0,229.0
12:33:14,31338.0,259.0,227.0
12:33:14,31338.0,259.0,227.0
12:33:14,31338.0,259.0,227.0
12:33:14,31338.0,259.0,227.0
12:33:14,-32768.0,258.0,229.0
12:33:14,-32768.0,258.0,229.0
12:33:14,-32768.0,258.0,229.0
12:33:14,-32768.0,258.0,229.0
12:33:14,-32768.0,259.0,228.0
12:33:14,-32768.0,259.0,228.0
12:33:14,-32768.0,259.0,228.0
12:33:14,-32768.0,259.0,228.0
12:33:14,-32768.0,259.0,228.0
12:33:14,-32768.0,259.0,228.0
12:33:14,-32768.0,259.0,228.0
12:33:14,-32768.0,259.0,228.0
12:33:14,-32768.0,259.0,229.0
12:33:14,-32768.0,259.0,229.0
12:33:14,-32768.0,259.0,229.0
12:33:14,-32768.0,259.0,229.0
12:33:14,-32768.0,261.0,229.0
12:33:14,-32768.0,261.0,229.0
12:33:14,-32768.0,261.0,229.0
12:33:14,-32768.0,261.0,229.0
12:33:14,-32768.0,259.0,229.0
12:33:14,-32768.0,259.0,229.0
12:33:14,-32768.0,259.0,229.0
12:33:14,-32768.0,259.0,229.0
12:33:14,-32768.0,259.0,230.0
12:33:14,-32768.0,259.0,230.0
12:33:14,-32768.0,259.0,230.0
12:33:14,-32768.0,259.0,230.0
12:33:14,-32768.0,259.0,228.0
12:33:14,-32768.0,259.0,228.0
12:33:14,-32768.0,259.0,228.0
12:33:14,-32768.0,259.0,228.0
12:33:14,-30965.0,259.0,230.0
12:33:14,-30965.0,259.0,230.0
12:33:14,-30965.0,259.0,230.0
12:33:14,-30965.0,259.0,230.0
12:33:14,-28989.0,263.0,230.0
12:33:14,-28989.0,263.0,230.0
12:33:14,-28989.0,263.0,230.0
12:33:14,-28989.0,263.0,230.0
12:33:14,-16719.0,262.0,231.0
12:33:14,-16719.0,262.0,231.0
12:33:14,-16719.0,262.0,231.0
12:33:14,-16719.0,262.0,231.0
12:33:14,-31746.0,262.0,230.0
12:33:14,-31746.0,262.0,230.0
12:33:14,-31746.0,262.0,230.0
12:33:14,-31746.0,262.0,230.0
12:33:14,-29633.0,261.0,231.0
12:33:15,-29633.0,261.0,231.0
12:33:15,-29633.0,261.0,231.0
12:33:15,-29633.0,261.0,231.0
12:33:15,-27551.0,261.0,231.0
12:33:15,-27551.0,261.0,231.0
12:33:15,-27551.0,261.0,231.0
12:33:15,-27551.0,261.0,231.0
12:33:15,-25828.0,260.0,231.0
12:33:15,-25828.0,260.0,231.0
12:33:15,-25828.0,260.0,231.0
12:33:15,-25828.0,260.0,231.0
12:33:15,-24183.0,263.0,232.0
12:33:15,-24183.0,263.0,232.0
12:33:15,-24183.0,263.0,232.0
12:33:15,-24183.0,263.0,232.0
12:33:15,-22774.0,262.0,230.0
12:33:15,-22774.0,262.0,230.0
12:33:15,-22774.0,262.0,230.0
12:33:15,-22774.0,262.0,230.0
12:33:15,-21326.0,262.0,231.0
12:33:15,-21326.0,262.0,231.0
12:33:15,-21326.0,262.0,231.0
12:33:15,-21326.0,262.0,231.0
12:33:15,-20109.0,261.0,232.0
12:33:15,-20109.0,261.0,232.0
12:33:15,-20109.0,261.0,232.0
12:33:15,-20109.0,261.0,232.0
12:33:15,-18807.0,263.0,230.0
12:33:15,-18807.0,263.0,230.0
12:33:15,-18807.0,263.0,230.0
12:33:15,-18807.0,263.0,230.0
12:33:15,-17663.0,262.0,232.0
12:33:15,-17663.0,262.0,232.0
12:33:15,-17663.0,262.0,232.0
12:33:15,-17663.0,262.0,232.0
12:33:15,-17206.0,262.0,231.0
12:33:15,-17206.0,262.0,231.0
12:33:15,-17206.0,262.0,231.0
12:33:15,-17206.0,262.0,231.0
12:33:15,-21102.0,263.0,230.0
12:33:15,-21102.0,263.0,230.0
12:33:15,-21102.0,263.0,230.0
12:33:15,-21102.0,263.0,230.0
12:33:15,-19400.0,262.0,231.0
12:33:15,-19400.0,262.0,231.0
12:33:15,-19400.0,262.0,231.0
12:33:15,-19400.0,262.0,231.0
12:33:15,-18578.0,262.0,232.0
12:33:15,-18578.0,262.0,232.0
12:33:15,-18578.0,262.0,232.0
12:33:15,-18578.0,262.0,232.0
12:33:15,-17446.0,262.0,230.0
12:33:15,-17446.0,262.0,230.0
12:33:15,-17446.0,262.0,230.0
12:33:15,-17446.0,262.0,230.0
12:33:15,-16232.0,264.0,231.0
12:33:15,-16232.0,264.0,231.0
12:33:15,-16232.0,264.0,231.0
12:33:15,-16232.0,264.0,231.0
12:33:15,-15130.0,262.0,232.0
12:33:15,-15130.0,262.0,232.0
12:33:15,-15130.0,262.0,232.0
12:33:15,-15130.0,262.0,232.0
12:33:15,-14128.0,263.0,230.0
12:33:15,-14128.0,263.0,230.0
12:33:15,-14128.0,263.0,230.0
12:33:15,-14128.0,263.0,230.0
12:33:15,-13278.0,263.0,230.0
12:33:15,-13278.0,263.0,230.0
12:33:15,-13278.0,263.0,230.0
12:33:15,-13278.0,263.0,230.0
12:33:15,-12285.0,262.0,231.0
12:33:15,-12285.0,262.0,231.0
12:33:15,-12285.0,262.0,231.0
12:33:15,-12285.0,262.0,231.0
12:33:15,7438.0,263.0,231.0
12:33:15,7438.0,263.0,231.0
12:33:15,7438.0,263.0,231.0
12:33:15,7438.0,263.0,231.0
12:33:15,-21864.0,263.0,232.0
12:33:15,-21864.0,263.0,232.0
12:33:15,-21864.0,263.0,232.0
12:33:15,-21864.0,263.0,232.0
12:33:15,-20526.0,262.0,232.0
12:33:15,-20526.0,262.0,232.0
12:33:15,-20526.0,262.0,232.0
12:33:15,-20526.0,262.0,232.0
12:33:15,-19209.0,262.0,230.0
12:33:15,-19209.0,262.0,230.0
12:33:15,-19209.0,262.0,230.0
12:33:15,-19209.0,262.0,230.0
12:33:15,-17978.0,262.0,231.0
12:33:15,-17978.0,262.0,231.0
12:33:15,-17978.0,262.0,231.0
12:33:15,-17978.0,262.0,231.0
12:33:15,31889.0,262.0,232.0
12:33:15,31889.0,262.0,232.0
12:33:15,31889.0,262.0,232.0
12:33:15,31889.0,262.0,232.0
12:33:15,-32768.0,262.0,231.0
12:33:15,-32768.0,262.0,231.0
12:33:15,-32768.0,262.0,231.0
12:33:15,-32768.0,262.0,231.0
12:33:15,-31785.0,262.0,231.0
12:33:15,-31785.0,262.0,231.0
12:33:15,-31785.0,262.0,231.0
12:33:15,-31785.0,262.0,231.0
12:33:15,-29604.0,263.0,232.0
12:33:15,-29604.0,263.0,232.0
12:33:15,-29604.0,263.0,232.0
12:33:15,-29604.0,263.0,232.0
12:33:15,-27523.0,263.0,231.0
12:33:15,-27523.0,263.0,231.0
12:33:15,-27523.0,263.0,231.0
12:33:15,-27523.0,263.0,231.0
12:33:15,-25758.0,262.0,231.0
12:33:15,-25758.0,262.0,231.0
12:33:15,-25758.0,262.0,231.0
12:33:15,-25758.0,262.0,231.0
12:33:15,-23979.0,262.0,231.0
12:33:15,-23979.0,262.0,231.0
12:33:15,-23979.0,262.0,231.0
12:33:15,-23979.0,262.0,231.0
12:33:15,-27530.0,263.0,230.0
12:33:15,-27530.0,263.0,230.0
12:33:15,-27530.0,263.0,230.0
12:33:15,-27530.0,263.0,230.0
12:33:15,-27227.0,262.0,232.0
12:33:15,-27227.0,262.0,232.0
12:33:15,-27227.0,262.0,232.0
12:33:15,-27227.0,262.0,232.0
12:33:15,-24449.0,261.0,231.0
12:33:15,-24449.0,261.0,231.0
12:33:15,-24449.0,261.0,231.0
12:33:15,-24449.0,261.0,231.0
12:33:15,-2637.0,262.0,231.0
12:33:15,-2637.0,262.0,231.0
12:33:15,-2637.0,262.0,231.0
12:33:15,-2637.0,262.0,231.0
12:33:15,-32768.0,262.0,231.0
12:33:15,-32768.0,262.0,231.0
12:33:15,-32768.0,262.0,231.0
12:33:15,-32768.0,262.0,231.0
12:33:15,-32768.0,262.0,230.0
12:33:15,-32768.0,262.0,230.0
12:33:15,-32768.0,262.0,230.0
12:33:15,-32768.0,262.0,230.0
12:33:15,-32768.0,262.0,228.0
12:33:15,-32768.0,262.0,228.0
12:33:15,-32768.0,262.0,228.0
12:33:15,-32768.0,262.0,228.0
12:33:15,-32684.0,262.0,231.0
12:33:15,-32684.0,262.0,231.0
12:33:15,-32684.0,262.0,231.0
12:33:15,-32684.0,262.0,231.0
12:33:15,-30586.0,262.0,230.0
12:33:15,-30586.0,262.0,230.0
12:33:15,-30586.0,262.0,230.0
12:33:15,-30586.0,262.0,230.0
12:33:15,-9978.0,261.0,230.0
12:33:15,-9978.0,261.0,230.0
12:33:15,-9978.0,261.0,230.0
12:33:15,-9978.0,261.0,230.0
12:33:15,-32768.0,262.0,230.0
12:33:15,-32768.0,262.0,230.0
12:33:15,-32768.0,262.0,230.0
12:33:15,-32768.0,262.0,230.0
12:33:15,-32768.0,261.0,229.0
12:33:15,-32768.0,261.0,229.0
12:33:15,-32768.0,261.0,229.0
12:33:15,-32768.0,261.0,229.0
12:33:15,-32768.0,262.0,230.0
12:33:15,-32768.0,262.0,230.0
12:33:15,-32768.0,262.0,230.0
12:33:15,-32768.0,262.0,230.0
12:33:15,-31213.0,260.0,230.0
12:33:15,-31213.0,260.0,230.0
12:33:15,-31213.0,260.0,230.0
12:33:15,-31213.0,260.0,230.0
12:33:15,7865.0,261.0,229.0
12:33:15,7865.0,261.0,229.0
12:33:15,7865.0,261.0,229.0
12:33:15,7865.0,261.0,229.0
12:33:15,-32768.0,262.0,229.0
12:33:15,-32768.0,262.0,229.0
12:33:15,-32768.0,262.0,229.0
12:33:15,-32768.0,262.0,229.0
12:33:15,-32768.0,260.0,229.0
12:33:15,-32768.0,260.0,229.0
12:33:15,-32768.0,260.0,229.0
12:33:15,-32768.0,260.0,229.0
12:33:15,-32768.0,260.0,228.0
12:33:15,-32768.0,260.0,228.0
12:33:15,-32768.0,260.0,228.0
12:33:15,-32768.0,260.0,228.0
12:33:15,-32768.0,260.0,229.0
12:33:15,-32768.0,260.0,229.0
12:33:15,-32768.0,260.0,229.0
12:33:15,-32768.0,260.0,229.0
12:33:15,-398.0,260.0,229.0
12:33:15,-398.0,260.0,229.0
12:33:16,-398.0,260.0,229.0
12:33:16,-398.0,260.0,229.0
12:33:16,32767.0,260.0,228.0
12:33:16,32767.0,260.0,228.0
12:33:16,32767.0,260.0,228.0
12:33:16,32767.0,260.0,228.0
12:33:16,13808.0,258.0,227.0
12:33:16,13808.0,258.0,227.0
12:33:16,13808.0,258.0,227.0
12:33:16,13808.0,258.0,227.0
12:33:16,-32768.0,259.0,228.0
12:33:16,-32768.0,259.0,228.0
12:33:16,-32768.0,259.0,228.0
12:33:16,-32768.0,259.0,228.0
12:33:16,16650.0,259.0,228.0
12:33:16,16650.0,259.0,228.0
12:33:16,16650.0,259.0,228.0
12:33:16,16650.0,259.0,228.0
12:33:16,-32768.0,260.0,226.0
12:33:16,-32768.0,260.0,226.0
12:33:16,-32768.0,260.0,226.0
12:33:16,-32768.0,260.0,226.0
12:33:16,-32768.0,257.0,227.0
12:33:16,-32768.0,257.0,227.0
12:33:16,-32768.0,257.0,227.0
12:33:16,-32768.0,257.0,227.0
12:33:16,-23312.0,258.0,228.0
12:33:16,-23312.0,258.0,228.0
12:33:16,-23312.0,258.0,228.0
12:33:16,-23312.0,258.0,228.0
12:33:16,32767.0,257.0,226.0
12:33:16,32767.0,257.0,226.0
12:33:16,32767.0,257.0,226.0
12:33:16,32767.0,257.0,226.0
12:33:16,32767.0,258.0,227.0
12:33:16,32767.0,258.0,227.0
12:33:16,32767.0,258.0,227.0
12:33:16,32767.0,258.0,227.0
12:33:16,-29570.0,258.0,227.0
12:33:16,-29570.0,258.0,227.0
12:33:16,-29570.0,258.0,227.0
12:33:16,-29570.0,258.0,227.0
12:33:16,-32768.0,259.0,228.0
12:33:16,-32768.0,259.0,228.0
12:33:16,-32768.0,259.0,228.0
12:33:16,-32768.0,259.0,228.0
12:33:16,-32768.0,258.0,227.0
12:33:16,-32768.0,258.0,227.0
12:33:16,-32768.0,258.0,227.0
12:33:16,-32768.0,258.0,227.0
12:33:16,-32768.0,258.0,227.0
12:33:16,-32768.0,258.0,227.0
12:33:16,-32768.0,258.0,227.0
12:33:16,-32768.0,258.0,227.0
12:33:16,-32768.0,259.0,226.0
12:33:16,-32768.0,259.0,226.0
12:33:16,-32768.0,259.0,226.0
12:33:16,-32768.0,259.0,226.0
12:33:16,-32768.0,258.0,227.0
12:33:16,-32768.0,258.0,227.0
12:33:16,-32768.0,258.0,227.0
12:33:16,-32768.0,258.0,227.0
12:33:16,32279.0,257.0,228.0
12:33:16,32279.0,257.0,228.0
12:33:16,32279.0,257.0,228.0
12:33:16,32279.0,257.0,228.0
12:33:16,-32768.0,260.0,227.0
12:33:16,-32768.0,260.0,227.0
12:33:16,-32768.0,260.0,227.0
12:33:16,-32768.0,260.0,227.0
12:33:16,25906.0,257.0,227.0
12:33:16,25906.0,257.0,227.0
12:33:16,25906.0,257.0,227.0
12:33:16,25906.0,257.0,227.0
12:33:16,32726.0,258.0,227.0
12:33:16,32726.0,258.0,227.0
12:33:16,32726.0,258.0,227.0
12:33:16,32726.0,258.0,227.0
12:33:16,-32768.0,261.0,226.0
12:33:16,-32768.0,261.0,226.0
12:33:16,-32768.0,261.0,226.0
12:33:16,-32768.0,261.0,226.0
12:33:16,-32768.0,258.0,227.0
12:33:16,-32768.0,258.0,227.0
12:33:16,-32768.0,258.0,227.0
12:33:16,-32768.0,258.0,227.0
12:33:16,-32768.0,258.0,227.0
12:33:16,-32768.0,258.0,227.0
12:33:16,-32768.0,258.0,227.0
12:33:16,-32768.0,258.0,227.0
12:33:16,-32768.0,257.0,226.0
12:33:16,-32768.0,257.0,226.0
12:33:16,-32768.0,257.0,226.0
12:33:16,-32768.0,257.0,226.0
12:33:16,-32768.0,259.0,226.0
12:33:16,-32768.0,259.0,226.0
12:33:16,-32768.0,259.0,226.0
12:33:16,-32768.0,259.0,226.0
12:33:16,21424.0,257.0,226.0
12:33:16,21424.0,257.0,226.0
12:33:16,21424.0,257.0,226.0
12:33:16,21424.0,257.0,226.0
12:33:16,-32768.0,257.0,227.0
12:33:16,-32768.0,257.0,227.0
12:33:16,-32768.0,257.0,227.0
12:33:16,-32768.0,257.0,227.0
12:33:16,-9802.0,258.0,227.0
12:33:16,-9802.0,258.0,227.0
12:33:16,-9802.0,258.0,227.0
12:33:16,-9802.0,258.0,227.0
12:33:16,26909.0,258.0,227.0
12:33:16,26909.0,258.0,227.0
12:33:16,26909.0,258.0,227.0
12:33:16,26909.0,258.0,227.0
12:33:16,-32768.0,257.0,227.0
12:33:16,-32768.0,257.0,227.0
12:33:16,-32768.0,257.0,227.0
12:33:16,-32768.0,257.0,227.0
12:33:16,-32768.0,258.0,226.0
12:33:16,-32768.0,258.0,226.0
12:33:16,-32768.0,258.0,226.0
12:33:16,-32768.0,258.0,226.0
12:33:16,-32768.0,257.0,227.0
12:33:16,-32768.0,257.0,227.0
12:33:16,-32768.0,257.0,227.0
12:33:16,-32768.0,257.0,227.0
12:33:16,-32768.0,259.0,228.0
12:33:16,-32768.0,259.0,228.0
12:33:16,-32768.0,259.0,228.0
12:33:16,-32768.0,259.0,228.0
12:33:16,-32768.0,259.0,227.0
12:33:16,-32768.0,259.0,227.0
12:33:16,-32768.0,259.0,227.0
12:33:16,-32768.0,259.0,227.0
12:33:16,-32768.0,259.0,227.0
12:33:16,-32768.0,259.0,227.0
12:33:16,-32768.0,259.0,227.0
12:33:16,-32768.0,259.0,227.0
12:33:16,32605.0,258.0,230.0
12:33:16,32605.0,258.0,230.0
12:33:16,32605.0,258.0,230.0
12:33:16,32605.0,258.0,230.0
12:33:16,31044.0,260.0,228.0
12:33:16,31044.0,260.0,228.0
12:33:16,31044.0,260.0,228.0
12:33:16,31044.0,260.0,228.0
12:33:16,32767.0,259.0,229.0
12:33:16,32767.0,259.0,229.0
12:33:16,32767.0,259.0,229.0
12:33:16,32767.0,259.0,229.0
12:33:16,-32767.0,260.0,228.0
12:33:16,-32767.0,260.0,228.0
12:33:16,-32767.0,260.0,228.0
12:33:16,-32767.0,260.0,228.0
12:33:16,-32768.0,260.0,229.0
12:33:16,-32768.0,260.0,229.0
12:33:16,-32768.0,260.0,229.0
12:33:16,-32768.0,260.0,229.0
12:33:16,-32768.0,260.0,230.0
12:33:16,-32768.0,260.0,230.0
12:33:16,-32768.0,260.0,230.0
12:33:16,-32768.0,260.0,230.0
12:33:16,-19165.0,260.0,229.0
12:33:16,-19165.0,260.0,229.0
12:33:16,-19165.0,260.0,229.0
12:33:16,-19165.0,260.0,229.0
12:33:16,-32768.0,258.0,231.0
12:33:16,-32768.0,258.0,231.0
12:33:16,-32768.0,258.0,231.0
12:33:16,-32768.0,258.0,231.0
12:33:16,-32768.0,261.0,230.0
12:33:16,-32768.0,261.0,230.0
12:33:16,-32768.0,261.0,230.0
12:33:16,-32768.0,261.0,230.0
12:33:16,-32768.0,261.0,231.0
12:33:16,-32768.0,261.0,231.0
12:33:16,-32768.0,261.0,231.0
12:33:16,-32768.0,261.0,231.0
12:33:16,-32768.0,259.0,230.0
12:33:16,-32768.0,259.0,230.0
12:33:16,-32768.0,259.0,230.0
12:33:16,-32768.0,259.0,230.0
12:33:16,-32768.0,261.0,230.0
12:33:16,-32768.0,261.0,230.0
12:33:16,-32768.0,261.0,230.0
12:33:16,-32768.0,261.0,230.0
12:33:16,-32768.0,262.0,231.0
12:33:16,-32768.0,262.0,231.0
12:33:16,-32768.0,262.0,231.0
12:33:16,-32768.0,262.0,231.0
12:33:16,-32768.0,261.0,231.0
12:33:16,-32768.0,261.0,231.0
12:33:16,-32768.0,261.0,231.0
12:33:16,-32768.0,261.0,231.0
12:33:16,-32768.0,262.0,231.0
12:33:16,-32768.0,262.0,231.0
12:33:16,-32768.0,262.0,231.0
12:33:16,-32768.0,262.0,231.0
12:33:16,-32768.0,263.0,230.0
12:33:16,-32768.0,263.0,230.0
12:33:17,-32768.0,263.0,230.0
12:33:17,-32768.0,263.0,230.0
12:33:17,-32768.0,263.0,231.0
12:33:17,-32768.0,263.0,231.0
12:33:17,-32768.0,263.0,231.0
12:33:17,-32768.0,263.0,231.0
12:33:17,-32768.0,262.0,231.0
12:33:17,-32768.0,262.0,231.0
12:33:17,-32768.0,262.0,231.0
12:33:17,-32768.0,262.0,231.0
12:33:17,-32768.0,261.0,231.0
12:33:17,-32768.0,261.0,231.0
12:33:17,-32768.0,261.0,231.0
12:33:17,-32768.0,261.0,231.0
12:33:17,-32768.0,262.0,230.0
12:33:17,-32768.0,262.0,230.0
12:33:17,-32768.0,262.0,230.0
12:33:17,-32768.0,262.0,230.0
12:33:17,-32768.0,263.0,231.0
12:33:17,-32768.0,263.0,231.0
12:33:17,-32768.0,263.0,231.0
12:33:17,-32768.0,263.0,231.0
12:33:17,-32768.0,262.0,231.0
12:33:17,-32768.0,262.0,231.0
12:33:17,-32768.0,262.0,231.0
12:33:17,-32768.0,262.0,231.0
12:33:17,-32768.0,262.0,233.0
12:33:17,-32768.0,262.0,233.0
12:33:17,-32768.0,262.0,233.0
12:33:17,-32768.0,262.0,233.0
12:33:17,-32768.0,264.0,231.0
12:33:17,-32768.0,264.0,231.0
12:33:17,-32768.0,264.0,231.0
12:33:17,-32768.0,264.0,231.0
12:33:17,-20689.0,262.0,232.0
12:33:17,-20689.0,262.0,232.0
12:33:17,-20689.0,262.0,232.0
12:33:17,-20689.0,262.0,232.0
12:33:17,-32768.0,261.0,232.0
12:33:17,-32768.0,261.0,232.0
12:33:17,-32768.0,261.0,232.0
12:33:17,-32768.0,261.0,232.0
12:33:17,-32768.0,262.0,230.0
12:33:17,-32768.0,262.0,230.0
12:33:17,-32768.0,262.0,230.0
12:33:17,-32768.0,262.0,230.0
12:33:17,-32768.0,262.0,231.0
12:33:17,-32768.0,262.0,231.0
12:33:17,-32768.0,262.0,231.0
12:33:17,-32768.0,262.0,231.0
12:33:17,28510.0,262.0,231.0
12:33:17,28510.0,262.0,231.0
12:33:17,28510.0,262.0,231.0
12:33:17,28510.0,262.0,231.0
12:33:17,-32768.0,260.0,230.0
12:33:17,-32768.0,260.0,230.0
12:33:17,-32768.0,260.0,230.0
12:33:17,-32768.0,260.0,230.0
12:33:17,-32768.0,261.0,231.0
12:33:17,-32768.0,261.0,231.0
12:33:17,-32768.0,261.0,231.0
12:33:17,-32768.0,261.0,231.0
12:33:17,29089.0,264.0,232.0
12:33:17,29089.0,264.0,232.0
12:33:17,29089.0,264.0,232.0
12:33:17,29089.0,264.0,232.0
12:33:17,-32768.0,262.0,231.0
12:33:17,-32768.0,262.0,231.0
12:33:17,-32768.0,262.0,231.0
12:33:17,-32768.0,262.0,231.0
12:33:17,-32768.0,263.0,232.0
12:33:17,-32768.0,263.0,232.0
12:33:17,-32768.0,263.0,232.0
12:33:17,-32768.0,263.0,232.0
12:33:17,-32768.0,263.0,232.0
12:33:17,-32768.0,263.0,232.0
12:33:17,-32768.0,263.0,232.0
12:33:17,-32768.0,263.0,232.0
12:33:17,-32768.0,263.0,232.0
12:33:17,-32768.0,263.0,232.0
12:33:17,-32768.0,263.0,232.0
12:33:17,-32768.0,263.0,232.0
12:33:17,-32768.0,263.0,232.0
12:33:17,-32768.0,263.0,232.0
12:33:17,-32768.0,263.0,232.0
12:33:17,-32768.0,263.0,232.0
12:33:17,-32768.0,264.0,232.0
12:33:17,-32768.0,264.0,232.0
12:33:17,-32768.0,264.0,232.0
12:33:17,-32768.0,264.0,232.0
12:33:17,-32768.0,262.0,231.0
12:33:17,-32768.0,262.0,231.0
12:33:17,-32768.0,262.0,231.0
12:33:17,-32768.0,262.0,231.0
12:33:17,-32368.0,263.0,232.0
12:33:17,-32368.0,263.0,232.0
12:33:17,-32368.0,263.0,232.0
12:33:17,-32368.0,263.0,232.0
12:33:17,-30275.0,264.0,231.0
12:33:17,-30275.0,264.0,231.0
12:33:17,-30275.0,264.0,231.0
12:33:17,-30275.0,264.0,231.0
12:33:17,-28251.0,261.0,232.0
12:33:17,-28251.0,261.0,232.0
12:33:17,-28251.0,261.0,232.0
12:33:17,-28251.0,261.0,232.0
12:33:17,-26397.0,264.0,231.0
12:33:17,-26397.0,264.0,231.0
12:33:17,-26397.0,264.0,231.0
12:33:17,-26397.0,264.0,231.0
12:33:17,-24583.0,263.0,232.0
12:33:17,-24583.0,263.0,232.0
12:33:17,-24583.0,263.0,232.0
12:33:17,-24583.0,263.0,232.0
12:33:17,-23055.0,262.0,232.0
12:33:17,-23055.0,262.0,232.0
12:33:17,-23055.0,262.0,232.0
12:33:17,-23055.0,262.0,232.0
12:33:17,-21766.0,262.0,230.0
12:33:17,-21766.0,262.0,230.0
12:33:17,-21766.0,262.0,230.0
12:33:17,-21766.0,262.0,230.0
12:33:17,-20452.0,261.0,231.0
12:33:17,-20452.0,261.0,231.0
12:33:17,-20452.0,261.0,231.0
12:33:17,-20452.0,261.0,231.0
12:33:17,-19272.0,263.0,232.0
12:33:17,-19272.0,263.0,232.0
12:33:17,-19272.0,263.0,232.0
12:33:17,-19272.0,263.0,232.0
12:33:17,-18042.0,262.0,230.0
12:33:17,-18042.0,262.0,230.0
12:33:17,-18042.0,262.0,230.0
12:33:17,-18042.0,262.0,230.0
12:33:17,-16853.0,262.0,231.0
12:33:17,-16853.0,262.0,231.0
12:33:17,-16853.0,262.0,231.0
12:33:17,-16853.0,262.0,231.0
12:33:17,-15829.0,263.0,231.0
12:33:17,-15829.0,263.0,231.0
12:33:17,-15829.0,263.0,231.0
12:33:17,-15829.0,263.0,231.0
12:33:17,-14731.0,261.0,230.0
12:33:17,-14731.0,261.0,230.0
12:33:17,-14731.0,261.0,230.0
12:33:17,-14731.0,261.0,230.0
12:33:17,-13666.0,262.0,230.0
12:33:17,-13666.0,262.0,230.0
12:33:17,-13666.0,262.0,230.0
12:33:17,-13666.0,262.0,230.0
12:33:17,-12824.0,261.0,229.0
12:33:17,-12824.0,261.0,229.0
12:33:17,-12824.0,261.0,229.0
12:33:17,-12824.0,261.0,229.0
12:33:17,31577.0,260.0,230.0
12:33:17,31577.0,260.0,230.0
12:33:17,31577.0,260.0,230.0
12:33:17,31577.0,260.0,230.0
12:33:17,-25648.0,261.0,231.0
12:33:17,-25648.0,261.0,231.0
12:33:17,-25648.0,261.0,231.0
12:33:17,-25648.0,261.0,231.0
12:33:17,-23897.0,260.0,229.0
12:33:17,-23897.0,260.0,229.0
12:33:17,-23897.0,260.0,229.0
12:33:17,-23897.0,260.0,229.0
12:33:17,-22320.0,261.0,229.0
12:33:17,-22320.0,261.0,229.0
12:33:17,-22320.0,261.0,229.0
12:33:17,-22320.0,261.0,229.0
12:33:17,32767.0,262.0,229.0
12:33:17,32767.0,262.0,229.0
12:33:17,32767.0,262.0,229.0
12:33:17,32767.0,262.0,229.0
12:33:17,32767.0,259.0,228.0
12:33:17,32767.0,259.0,228.0
12:33:17,32767.0,259.0,228.0
12:33:17,32767.0,259.0,228.0
12:33:17,-25837.0,261.0,229.0
12:33:17,-25837.0,261.0,229.0
12:33:17,-25837.0,261.0,229.0
12:33:17,-25837.0,261.0,229.0
12:33:17,-32768.0,259.0,229.0
12:33:17,-32768.0,259.0,229.0
12:33:17,-32768.0,259.0,229.0
12:33:17,-32768.0,259.0,229.0
12:33:17,-32768.0,260.0,228.0
12:33:17,-32768.0,260.0,228.0
12:33:17,-32768.0,260.0,228.0
12:33:17,-32768.0,260.0,228.0
12:33:17,-32768.0,258.0,228.0
12:33:17,-32768.0,258.0,228.0
12:33:17,-32768.0,258.0,228.0
12:33:17,-32768.0,258.0,228.0
12:33:17,-32768.0,259.0,227.0
12:33:17,-32768.0,259.0,227.0
12:33:17,-32768.0,259.0,227.0
12:33:17,-32768.0,259.0,227.0
12:33:17,26608.0,260.0,227.0
12:33:17,26608.0,260.0,227.0
12:33:17,26608.0,260.0,227.0
12:33:18,26608.0,260.0,227.0
12:33:18,-32768.0,258.0,228.0
12:33:18,-32768.0,258.0,228.0
12:33:18,-32768.0,258.0,228.0
12:33:18,-32768.0,258.0,228.0
12:33:18,-32768.0,260.0,226.0
12:33:18,-32768.0,260.0,226.0
12:33:18,-32768.0,260.0,226.0
12:33:18,-32768.0,260.0,226.0
12:33:18,-32768.0,258.0,226.0
12:33:18,-32768.0,258.0,226.0
12:33:18,-32768.0,258.0,226.0
12:33:18,-32768.0,258.0,226.0
12:33:18,2301.0,259.0,228.0
12:33:18,2301.0,259.0,228.0
12:33:18,2301.0,259.0,228.0
12:33:18,2301.0,259.0,228.0
12:33:18,-32768.0,259.0,228.0
12:33:18,-32768.0,259.0,228.0
12:33:18,-32768.0,259.0,228.0
12:33:18,-32768.0,259.0,228.0
12:33:18,-32768.0,256.0,228.0
12:33:18,-32768.0,256.0,228.0
12:33:18,-32768.0,256.0,228.0
12:33:18,-32768.0,256.0,228.0
12:33:18,-32768.0,258.0,229.0
12:33:18,-32768.0,258.0,229.0
12:33:18,-32768.0,258.0,229.0
12:33:18,-32768.0,258.0,229.0
12:33:18,-32713.0,260.0,227.0
12:33:18,-32713.0,260.0,227.0
12:33:18,-32713.0,260.0,227.0
12:33:18,-32713.0,260.0,227.0
12:33:18,32704.0,260.0,227.0
12:33:18,32704.0,260.0,227.0
12:33:18,32704.0,260.0,227.0
12:33:18,32704.0,260.0,227.0
12:33:18,-32768.0,258.0,227.0
12:33:18,-32768.0,258.0,227.0
12:33:18,-32768.0,258.0,227.0
12:33:18,-32768.0,258.0,227.0
12:33:18,-32768.0,258.0,227.0
12:33:18,-32768.0,258.0,227.0
12:33:18,-32768.0,258.0,227.0
12:33:18,-32768.0,258.0,227.0
12:33:18,-32768.0,259.0,227.0
12:33:18,-32768.0,259.0,227.0
12:33:18,-32768.0,259.0,227.0
12:33:18,-32768.0,259.0,227.0
12:33:18,-32768.0,259.0,228.0
12:33:18,-32768.0,259.0,228.0
12:33:18,-32768.0,259.0,228.0
12:33:18,-32768.0,259.0,228.0
12:33:18,-32768.0,258.0,226.0
12:33:18,-32768.0,258.0,226.0
12:33:18,-32768.0,258.0,226.0
12:33:18,-32768.0,258.0,226.0
12:33:18,-32768.0,259.0,227.0
12:33:18,-32768.0,259.0,227.0
12:33:18,-32768.0,259.0,227.0
12:33:18,-32768.0,259.0,227.0
12:33:18,-32768.0,259.0,227.0
12:33:18,-32768.0,259.0,227.0
12:33:18,-32768.0,259.0,227.0
12:33:18,-32768.0,259.0,227.0
12:33:18,-32768.0,258.0,226.0
12:33:18,-32768.0,258.0,226.0
12:33:18,-32768.0,258.0,226.0
12:33:18,-32768.0,258.0,226.0
12:33:18,-32768.0,258.0,227.0
12:33:18,-32768.0,258.0,227.0
12:33:18,-32768.0,258.0,227.0
12:33:18,-32768.0,258.0,227.0
12:33:18,-32768.0,259.0,226.0
12:33:18,-32768.0,259.0,226.0
12:33:18,-32768.0,259.0,226.0
12:33:18,-32768.0,259.0,226.0
12:33:18,-32768.0,257.0,227.0
12:33:18,-32768.0,257.0,227.0
12:33:18,-32768.0,257.0,227.0
12:33:18,-32768.0,257.0,227.0
12:33:18,-32768.0,259.0,227.0
12:33:18,-32768.0,259.0,227.0
12:33:18,-32768.0,259.0,227.0
12:33:18,-32768.0,259.0,227.0
12:33:18,-31367.0,258.0,227.0
12:33:18,-31367.0,258.0,227.0
12:33:18,-31367.0,258.0,227.0
12:33:18,-31367.0,258.0,227.0
12:33:18,-29476.0,258.0,228.0
12:33:18,-29476.0,258.0,228.0
12:33:18,-29476.0,258.0,228.0
12:33:18,-29476.0,258.0,228.0
12:33:18,-27312.0,258.0,226.0
12:33:18,-27312.0,258.0,226.0
12:33:18,-27312.0,258.0,226.0
12:33:18,-27312.0,258.0,226.0
12:33:18,-25528.0,257.0,227.0
12:33:18,-25528.0,257.0,227.0
12:33:18,-25528.0,257.0,227.0
12:33:18,-25528.0,257.0,227.0
12:33:18,-23899.0,257.0,227.0
12:33:18,-23899.0,257.0,227.0
12:33:18,-23899.0,257.0,227.0
12:33:18,-23899.0,257.0,227.0
12:33:18,-22401.0,257.0,227.0
12:33:18,-22401.0,257.0,227.0
12:33:18,-22401.0,257.0,227.0
12:33:18,-22401.0,257.0,227.0
12:33:18,28851.0,259.0,228.0
12:33:18,28851.0,259.0,228.0
12:33:18,28851.0,259.0,228.0
12:33:18,28851.0,259.0,228.0
12:33:18,32767.0,259.0,227.0
12:33:18,32767.0,259.0,227.0
12:33:18,32767.0,259.0,227.0
12:33:18,32767.0,259.0,227.0
12:33:18,-32768.0,257.0,227.0
12:33:18,-32768.0,257.0,227.0
12:33:18,-32768.0,257.0,227.0
12:33:18,-32768.0,257.0,227.0
12:33:18,-32768.0,259.0,227.0
12:33:18,-32768.0,259.0,227.0
12:33:18,-32768.0,259.0,227.0
12:33:18,-32768.0,259.0,227.0
12:33:18,-32768.0,260.0,228.0
12:33:18,-32768.0,260.0,228.0
12:33:18,-32768.0,260.0,228.0
12:33:18,-32768.0,260.0,228.0
12:33:18,-32768.0,260.0,228.0
12:33:18,-32768.0,260.0,228.0
12:33:18,-32768.0,260.0,228.0
12:33:18,-32768.0,260.0,228.0
12:33:18,-32768.0,260.0,229.0
12:33:18,-32768.0,260.0,229.0
12:33:18,-32768.0,260.0,229.0
12:33:18,-32768.0,260.0,229.0
12:33:18,-32768.0,260.0,228.0
12:33:18,-32768.0,260.0,228.0
12:33:18,-32768.0,260.0,228.0
12:33:18,-32768.0,260.0,228.0
12:33:18,1881.0,260.0,229.0
12:33:18,1881.0,260.0,229.0
12:33:18,1881.0,260.0,229.0
12:33:18,1881.0,260.0,229.0
12:33:18,-32768.0,259.0,230.0
12:33:18,-32768.0,259.0,230.0
12:33:18,-32768.0,259.0,230.0
12:33:18,-32768.0,259.0,230.0
12:33:18,-32768.0,259.0,230.0
12:33:18,-32768.0,259.0,230.0
12:33:18,-32768.0,259.0,230.0
12:33:18,-32768.0,259.0,230.0
12:33:18,-32768.0,259.0,229.0
12:33:18,-32768.0,259.0,229.0
12:33:18,-32768.0,259.0,229.0
12:33:18,-32768.0,259.0,229.0
12:33:18,-32009.0,261.0,230.0
12:33:18,-32009.0,261.0,230.0
12:33:18,-32009.0,261.0,230.0
12:33:18,-32009.0,261.0,230.0
12:33:18,-29865.0,259.0,230.0
12:33:18,-29865.0,259.0,230.0
12:33:18,-29865.0,259.0,230.0
12:33:18,-29865.0,259.0,230.0
12:33:18,-27879.0,259.0,230.0
12:33:18,-27879.0,259.0,230.0
12:33:18,-27879.0,259.0,230.0
12:33:18,-27879.0,259.0,230.0
12:33:18,-26044.0,261.0,230.0
12:33:18,-26044.0,261.0,230.0
12:33:18,-26044.0,261.0,230.0
12:33:18,-26044.0,261.0,230.0
12:33:18,-24330.0,260.0,230.0
12:33:18,-24330.0,260.0,230.0
12:33:18,-24330.0,260.0,230.0
12:33:18,-24330.0,260.0,230.0
12:33:18,-22750.0,262.0,230.0
12:33:18,-22750.0,262.0,230.0
12:33:18,-22750.0,262.0,230.0
12:33:18,-22750.0,262.0,230.0
12:33:18,-21300.0,261.0,230.0
12:33:18,-21300.0,261.0,230.0
12:33:18,-21300.0,261.0,230.0
12:33:18,-21300.0,261.0,230.0
12:33:18,-20099.0,261.0,231.0
12:33:18,-20099.0,261.0,231.0
12:33:18,-20099.0,261.0,231.0
12:33:18,-20099.0,261.0,231.0
12:33:18,-18929.0,260.0,231.0
12:33:18,-18929.0,260.0,231.0
12:33:18,-18929.0,260.0,231.0
12:33:18,-18929.0,260.0,231.0
12:33:18,-17660.0,262.0,232.0
12:33:18,-17660.0,262.0,232.0
12:33:18,-17660.0,262.0,232.0
12:33:18,-17660.0,262.0,232.0
12:33:18,-16550.0,262.0,231.0
12:33:18,-16550.0,262.0,231.0
12:33:18,-16550.0,262.0,231.0
12:33:18,-16550.0,262.0,231.0
12:33:19,-15340.0,261.0,231.0
12:33:19,-15340.0,261.0,231.0
12:33:19,-15340.0,261.0,231.0
12:33:19,-15340.0,261.0,231.0
12:33:19,22365.0,262.0,231.0
12:33:19,22365.0,262.0,231.0
12:33:19,22365.0,262.0,231.0
12:33:19,22365.0,262.0,231.0
12:33:19,-21849.0,263.0,231.0
12:33:19,-21849.0,263.0,231.0
12:33:19,-21849.0,263.0,231.0
12:33:19,-21849.0,263.0,231.0
12:33:19,-20406.0,263.0,231.0
12:33:19,-20406.0,263.0,231.0
12:33:19,-20406.0,263.0,231.0
12:33:19,-20406.0,263.0,231.0
12:33:19,-19066.0,262.0,231.0
12:33:19,-19066.0,262.0,231.0
12:33:19,-19066.0,262.0,231.0
12:33:19,-19066.0,262.0,231.0
12:33:19,16771.0,263.0,231.0
12:33:19,16771.0,263.0,231.0
12:33:19,16771.0,263.0,231.0
12:33:19,16771.0,263.0,231.0
12:33:19,-27409.0,262.0,232.0
12:33:19,-27409.0,262.0,232.0
12:33:19,-27409.0,262.0,232.0
12:33:19,-27409.0,262.0,232.0
12:33:19,-25560.0,263.0,231.0
12:33:19,-25560.0,263.0,231.0
12:33:19,-25560.0,263.0,231.0
12:33:19,-25560.0,263.0,231.0
12:33:19,-23793.0,263.0,232.0
12:33:19,-23793.0,263.0,232.0
12:33:19,-23793.0,263.0,232.0
12:33:19,-23793.0,263.0,232.0
12:33:19,-21597.0,262.0,232.0
12:33:19,-21597.0,262.0,232.0
12:33:19,-21597.0,262.0,232.0
12:33:19,-21597.0,262.0,232.0
12:33:19,-25466.0,263.0,230.0
12:33:19,-25466.0,263.0,230.0
12:33:19,-25466.0,263.0,230.0
12:33:19,-25466.0,263.0,230.0
12:33:19,-23749.0,263.0,232.0
12:33:19,-23749.0,263.0,232.0
12:33:19,-23749.0,263.0,232.0
12:33:19,-23749.0,263.0,232.0
12:33:19,-22250.0,260.0,231.0
12:33:19,-22250.0,260.0,231.0
12:33:19,-22250.0,260.0,231.0
12:33:19,-22250.0,260.0,231.0
12:33:19,-14501.0,264.0,232.0
12:33:19,-14501.0,264.0,232.0
12:33:19,-14501.0,264.0,232.0
12:33:19,-14501.0,264.0,232.0
12:33:19,-17931.0,263.0,232.0
12:33:19,-17931.0,263.0,232.0
12:33:19,-17931.0,263.0,232.0
12:33:19,-17931.0,263.0,232.0
12:33:19,-19114.0,262.0,231.0
12:33:19,-19114.0,262.0,231.0
12:33:19,-19114.0,262.0,231.0
12:33:19,-19114.0,262.0,231.0
12:33:19,-17899.0,263.0,233.0
12:33:19,-17899.0,263.0,233.0
12:33:19,-17899.0,263.0,233.0
12:33:19,-17899.0,263.0,233.0
12:33:19,-16760.0,263.0,232.0
12:33:19,-16760.0,263.0,232.0
12:33:19,-16760.0,263.0,232.0
12:33:19,-16760.0,263.0,232.0
12:33:19,-15561.0,262.0,233.0
12:33:19,-15561.0,262.0,233.0
12:33:19,-15561.0,262.0,233.0
12:33:19,-15561.0,262.0,233.0
12:33:19,-14522.0,263.0,232.0
12:33:19,-14522.0,263.0,232.0
12:33:19,-14522.0,263.0,232.0
12:33:19,-14522.0,263.0,232.0
12:33:19,-2223.0,263.0,233.0
12:33:19,-2223.0,263.0,233.0
12:33:19,-2223.0,263.0,233.0
12:33:19,-2223.0,263.0,233.0
12:33:19,-17455.0,262.0,233.0
12:33:19,-17455.0,262.0,233.0
12:33:19,-17455.0,262.0,233.0
12:33:19,-17455.0,262.0,233.0
12:33:19,-16175.0,263.0,233.0
12:33:19,-16175.0,263.0,233.0
12:33:19,-16175.0,263.0,233.0
12:33:19,-16175.0,263.0,233.0
12:33:19,-15175.0,263.0,232.0
12:33:19,-15175.0,263.0,232.0
12:33:19,-15175.0,263.0,232.0
12:33:19,-15175.0,263.0,232.0
12:33:19,-14171.0,263.0,232.0
12:33:19,-14171.0,263.0,232.0
12:33:19,-14171.0,263.0,232.0
12:33:19,-14171.0,263.0,232.0
12:33:19,-13270.0,263.0,232.0
12:33:19,-13270.0,263.0,232.0
12:33:19,-13270.0,263.0,232.0
12:33:19,-13270.0,263.0,232.0
12:33:19,-12271.0,263.0,231.0
12:33:19,-12271.0,263.0,231.0
12:33:19,-12271.0,263.0,231.0
12:33:19,-12271.0,263.0,231.0
12:33:19,-11481.0,262.0,231.0
12:33:19,-11481.0,262.0,231.0
12:33:19,-11481.0,262.0,231.0
12:33:19,-11481.0,262.0,231.0
12:33:19,-10675.0,262.0,233.0
12:33:19,-10675.0,262.0,233.0
12:33:19,-10675.0,262.0,233.0
12:33:19,-10675.0,262.0,233.0
12:33:19,-10010.0,262.0,231.0
12:33:19,-10010.0,262.0,231.0
12:33:19,-10010.0,262.0,231.0
12:33:19,-10010.0,262.0,231.0
12:33:19,3850.0,262.0,230.0
12:33:19,3850.0,262.0,230.0
12:33:19,3850.0,262.0,230.0
12:33:19,3850.0,262.0,230.0
12:33:19,-17650.0,263.0,232.0
12:33:19,-17650.0,263.0,232.0
12:33:19,-17650.0,263.0,232.0
12:33:19,-17650.0,263.0,232.0
12:33:19,-16205.0,263.0,230.0
12:33:19,-16205.0,263.0,230.0
12:33:19,-16205.0,263.0,230.0
12:33:19,-16205.0,263.0,230.0
12:33:19,-15129.0,261.0,230.0
12:33:19,-15129.0,261.0,230.0
12:33:19,-15129.0,261.0,230.0
12:33:19,-15129.0,261.0,230.0
12:33:19,20244.0,263.0,230.0
12:33:19,20244.0,263.0,230.0
12:33:19,20244.0,263.0,230.0
12:33:19,20244.0,263.0,230.0
12:33:19,32767.0,262.0,230.0
12:33:19,32767.0,262.0,230.0
12:33:19,32767.0,262.0,230.0
12:33:19,32767.0,262.0,230.0
12:33:19,32767.0,261.0,229.0
12:33:19,32767.0,261.0,229.0
12:33:19,32767.0,261.0,229.0
12:33:19,32767.0,261.0,229.0
12:33:19,-32768.0,262.0,230.0
12:33:19,-32768.0,262.0,230.0
12:33:19,-32768.0,262.0,230.0
12:33:19,-32768.0,262.0,230.0
12:33:19,-32768.0,262.0,229.0
12:33:19,-32768.0,262.0,229.0
12:33:19,-32768.0,262.0,229.0
12:33:19,-32768.0,262.0,229.0
12:33:19,-32768.0,261.0,229.0
12:33:19,-32768.0,261.0,229.0
12:33:19,-32768.0,261.0,229.0
12:33:19,-32768.0,261.0,229.0
12:33:19,-32768.0,261.0,231.0
12:33:19,-32768.0,261.0,231.0
12:33:19,-32768.0,261.0,231.0
12:33:19,-32768.0,261.0,231.0
12:33:19,-32768.0,260.0,229.0
12:33:19,-32768.0,260.0,229.0
12:33:19,-32768.0,260.0,229.0
12:33:19,-32768.0,260.0,229.0
12:33:19,-32768.0,260.0,229.0
12:33:19,-32768.0,260.0,229.0
12:33:19,-32768.0,260.0,229.0
12:33:19,-32768.0,260.0,229.0
12:33:19,-32768.0,262.0,230.0
12:33:19,-32768.0,262.0,230.0
12:33:19,-32768.0,262.0,230.0
12:33:19,-32768.0,262.0,230.0
12:33:19,32767.0,261.0,228.0
12:33:19,32767.0,261.0,228.0
12:33:19,32767.0,261.0,228.0
12:33:19,32767.0,261.0,228.0
12:33:19,32767.0,260.0,229.0
12:33:19,32767.0,260.0,229.0
12:33:19,32767.0,260.0,229.0
12:33:19,32767.0,260.0,229.0
12:33:19,20790.0,259.0,228.0
12:33:19,20790.0,259.0,228.0
12:33:19,20790.0,259.0,228.0
12:33:19,20790.0,259.0,228.0
12:33:19,18503.0,260.0,228.0
12:33:19,18503.0,260.0,228.0
12:33:19,18503.0,260.0,228.0
12:33:19,18503.0,260.0,228.0
12:33:19,-32768.0,258.0,228.0
12:33:19,-32768.0,258.0,228.0
12:33:19,-32768.0,258.0,228.0
12:33:19,-32768.0,258.0,228.0
12:33:19,-32768.0,259.0,227.0
12:33:19,-32768.0,259.0,227.0
12:33:19,-32768.0,259.0,227.0
12:33:19,-32768.0,259.0,227.0
12:33:19,-32768.0,257.0,227.0
12:33:20,-32768.0,257.0,227.0
12:33:20,-32768.0,257.0,227.0
12:33:20,-32768.0,257.0,227.0
12:33:20,-32768.0,260.0,229.0
12:33:20,-32768.0,260.0,229.0
12:33:20,-32768.0,260.0,229.0
12:33:20,-32768.0,260.0,229.0
12:33:20,-32325.0,259.0,227.0
12:33:20,-32325.0,259.0,227.0
12:33:20,-32325.0,259.0,227.0
12:33:20,-32325.0,259.0,227.0
12:33:20,-32768.0,258.0,228.0
12:33:20,-32768.0,258.0,228.0
12:33:20,-32768.0,258.0,228.0
12:33:20,-32768.0,258.0,228.0
12:33:20,-32768.0,259.0,228.0
12:33:20,-32768.0,259.0,228.0
12:33:20,-32768.0,259.0,228.0
12:33:20,-32768.0,259.0,228.0
12:33:20,-32768.0,259.0,227.0
12:33:20,-32768.0,259.0,227.0
12:33:20,-32768.0,259.0,227.0
12:33:20,-32768.0,259.0,227.0
12:33:20,30614.0,258.0,227.0
12:33:20,30614.0,258.0,227.0
12:33:20,30614.0,258.0,227.0
12:33:20,30614.0,258.0,227.0
12:33:20,14444.0,259.0,228.0
12:33:20,14444.0,259.0,228.0
12:33:20,14444.0,259.0,228.0
12:33:20,14444.0,259.0,228.0
12:33:20,-32768.0,259.0,226.0
12:33:20,-32768.0,259.0,226.0
12:33:20,-32768.0,259.0,226.0
12:33:20,-32768.0,259.0,226.0
12:33:20,-32768.0,258.0,227.0
12:33:20,-32768.0,258.0,227.0
12:33:20,-32768.0,258.0,227.0
12:33:20,-32768.0,258.0,227.0
12:33:20,-32768.0,259.0,228.0
12:33:20,-32768.0,259.0,228.0
12:33:20,-32768.0,259.0,228.0
12:33:20,-32768.0,259.0,228.0
12:33:20,-32768.0,258.0,228.0
12:33:20,-32768.0,258.0,228.0
12:33:20,-32768.0,258.0,228.0
12:33:20,-32768.0,258.0,228.0
12:33:20,-32768.0,259.0,227.0
12:33:20,-32768.0,259.0,227.0
12:33:20,-32768.0,259.0,227.0
12:33:20,-32768.0,259.0,227.0
12:33:20,-32768.0,257.0,227.0
12:33:20,-32768.0,257.0,227.0
12:33:20,-32768.0,257.0,227.0
12:33:20,-32768.0,257.0,227.0
12:33:20,-26079.0,259.0,226.0
12:33:20,-26079.0,259.0,226.0
12:33:20,-26079.0,259.0,226.0
12:33:20,-26079.0,259.0,226.0
12:33:20,-32768.0,257.0,228.0
12:33:20,-32768.0,257.0,228.0
12:33:20,-32768.0,257.0,228.0
12:33:20,-32768.0,257.0,228.0
12:33:20,-32768.0,258.0,227.0
12:33:20,-32768.0,258.0,227.0
12:33:20,-32768.0,258.0,227.0
12:33:20,-32768.0,258.0,227.0
12:33:20,-32768.0,259.0,225.0
12:33:20,-32768.0,259.0,225.0
12:33:20,-32768.0,259.0,225.0
12:33:20,-32768.0,259.0,225.0
12:33:20,-32768.0,258.0,227.0
12:33:20,-32768.0,258.0,227.0
12:33:20,-32768.0,258.0,227.0
12:33:20,-32768.0,258.0,227.0
12:33:20,-32768.0,258.0,226.0
12:33:20,-32768.0,258.0,226.0
12:33:20,-32768.0,258.0,226.0
12:33:20,-32768.0,258.0,226.0
12:33:20,-32768.0,258.0,226.0
12:33:20,-32768.0,258.0,226.0
12:33:20,-32768.0,258.0,226.0
12:33:20,-32768.0,258.0,226.0
12:33:20,-32768.0,257.0,228.0
12:33:20,-32768.0,257.0,228.0
12:33:20,-32768.0,257.0,228.0
12:33:20,-32768.0,257.0,228.0
12:33:20,-32768.0,258.0,226.0
12:33:20,-32768.0,258.0,226.0
12:33:20,-32768.0,258.0,226.0
12:33:20,-32768.0,258.0,226.0
12:33:20,-31981.0,257.0,227.0
12:33:20,-31981.0,257.0,227.0
12:33:20,-31981.0,257.0,227.0
12:33:20,-31981.0,257.0,227.0
12:33:20,-4597.0,260.0,228.0
12:33:20,-4597.0,260.0,228.0
12:33:20,-4597.0,260.0,228.0
12:33:20,-4597.0,260.0,228.0
12:33:20,-32768.0,258.0,228.0
12:33:20,-32768.0,258.0,228.0
12:33:20,-32768.0,258.0,228.0
12:33:20,-32768.0,258.0,228.0
12:33:20,-31051.0,258.0,227.0
12:33:20,-31051.0,258.0,227.0
12:33:20,-31051.0,258.0,227.0
12:33:20,-31051.0,258.0,227.0
12:33:20,-29215.0,259.0,228.0
12:33:20,-29215.0,259.0,228.0
12:33:20,-29215.0,259.0,228.0
12:33:20,-29215.0,259.0,228.0
12:33:20,-27350.0,259.0,228.0
12:33:20,-27350.0,259.0,228.0
12:33:20,-27350.0,259.0,228.0
12:33:20,-27350.0,259.0,228.0
12:33:20,-25403.0,257.0,227.0
12:33:20,-25403.0,257.0,227.0
12:33:20,-25403.0,257.0,227.0
12:33:20,-25403.0,257.0,227.0
12:33:20,-23764.0,259.0,228.0
12:33:20,-23764.0,259.0,228.0
12:33:20,-23764.0,259.0,228.0
12:33:20,-23764.0,259.0,228.0
12:33:20,-22386.0,260.0,228.0
12:33:20,-22386.0,260.0,228.0
12:33:20,-22386.0,260.0,228.0
12:33:20,-22386.0,260.0,228.0
12:33:20,-21001.0,258.0,229.0
12:33:20,-21001.0,258.0,229.0
12:33:20,-21001.0,258.0,229.0
12:33:20,-21001.0,258.0,229.0
12:33:20,-19760.0,260.0,229.0
12:33:20,-19760.0,260.0,229.0
12:33:20,-19760.0,260.0,229.0
12:33:20,-19760.0,260.0,229.0
12:33:20,-21513.0,259.0,229.0
12:33:20,-21513.0,259.0,229.0
12:33:20,-21513.0,259.0,229.0
12:33:20,-21513.0,259.0,229.0
12:33:20,-21051.0,260.0,229.0
12:33:20,-21051.0,260.0,229.0
12:33:20,-21051.0,260.0,229.0
12:33:20,-21051.0,260.0,229.0
12:33:20,-19639.0,261.0,228.0
12:33:20,-19639.0,261.0,228.0
12:33:20,-19639.0,261.0,228.0
12:33:20,-19639.0,261.0,228.0
12:33:20,-16753.0,262.0,230.0
12:33:20,-16753.0,262.0,230.0
12:33:20,-16753.0,262.0,230.0
12:33:20,-16753.0,262.0,230.0
12:33:20,-17500.0,259.0,228.0
12:33:20,-17500.0,259.0,228.0
12:33:20,-17500.0,259.0,228.0
12:33:20,-17500.0,259.0,228.0
12:33:20,-16290.0,259.0,229.0
12:33:20,-16290.0,259.0,229.0
12:33:20,-16290.0,259.0,229.0
12:33:20,-16290.0,259.0,229.0
12:33:20,-15264.0,261.0,230.0
12:33:20,-15264.0,261.0,230.0
12:33:20,-15264.0,261.0,230.0
12:33:20,-15264.0,261.0,230.0
12:33:20,-14212.0,260.0,229.0
12:33:20,-14212.0,260.0,229.0
12:33:20,-14212.0,260.0,229.0
12:33:20,-14212.0,260.0,229.0
12:33:20,-13319.0,261.0,230.0
12:33:20,-13319.0,261.0,230.0
12:33:20,-13319.0,261.0,230.0
12:33:20,-13319.0,261.0,230.0
12:33:20,-12348.0,262.0,231.0
12:33:20,-12348.0,262.0,231.0
12:33:20,-12348.0,262.0,231.0
12:33:20,-12348.0,262.0,231.0
12:33:20,16245.0,261.0,231.0
12:33:20,16245.0,261.0,231.0
12:33:20,16245.0,261.0,231.0
12:33:20,16245.0,261.0,231.0
12:33:20,-17087.0,262.0,232.0
12:33:20,-17087.0,262.0,232.0
12:33:20,-17087.0,262.0,232.0
12:33:20,-17087.0,262.0,232.0
12:33:20,-15877.0,262.0,231.0
12:33:20,-15877.0,262.0,231.0
12:33:20,-15877.0,262.0,231.0
12:33:20,-15877.0,262.0,231.0
12:33:20,-14831.0,262.0,232.0
12:33:20,-14831.0,262.0,232.0
12:33:20,-14831.0,262.0,232.0
12:33:20,-14831.0,262.0,232.0
12:33:20,26736.0,261.0,231.0
12:33:20,26736.0,261.0,231.0
12:33:20,26736.0,261.0,231.0
12:33:20,26736.0,261.0,231.0
12:33:20,-28999.0,261.0,231.0
12:33:20,-28999.0,261.0,231.0
12:33:20,-28999.0,261.0,231.0
12:33:20,-28999.0,261.0,231.0
12:33:20,-27045.0,263.0,231.0
12:33:21,-27045.0,263.0,231.0
12:33:21,-27045.0,263.0,231.0
12:33:21,-27045.0,263.0,231.0
12:33:21,-25042.0,264.0,231.0
12:33:21,-25042.0,264.0,231.0
12:33:21,-25042.0,264.0,231.0
12:33:21,-25042.0,264.0,231.0
12:33:21,-23362.0,261.0,232.0
12:33:21,-23362.0,261.0,232.0
12:33:21,-23362.0,261.0,232.0
12:33:21,-23362.0,261.0,232.0
12:33:21,-21853.0,262.0,231.0
12:33:21,-21853.0,262.0,231.0
12:33:21,-21853.0,262.0,231.0
12:33:21,-21853.0,262.0,231.0
12:33:21,32767.0,262.0,232.0
12:33:21,32767.0,262.0,232.0
12:33:21,32767.0,262.0,232.0
12:33:21,32767.0,262.0,232.0
12:33:21,32767.0,261.0,231.0
12:33:21,32767.0,261.0,231.0
12:33:21,32767.0,261.0,231.0
12:33:21,32767.0,261.0,231.0
12:33:21,32767.0,262.0,232.0
12:33:21,32767.0,262.0,232.0
12:33:21,32767.0,262.0,232.0
12:33:21,32767.0,262.0,232.0
12:33:21,-11683.0,262.0,230.0
12:33:21,-11683.0,262.0,230.0
12:33:21,-11683.0,262.0,230.0
12:33:21,-11683.0,262.0,230.0
12:33:21,-32768.0,262.0,231.0
12:33:21,-32768.0,262.0,231.0
12:33:21,-32768.0,262.0,231.0
12:33:21,-32768.0,262.0,231.0
12:33:21,-32768.0,263.0,232.0
12:33:21,-32768.0,263.0,232.0
12:33:21,-32768.0,263.0,232.0
12:33:21,-32768.0,263.0,232.0
12:33:21,-32768.0,262.0,232.0
12:33:21,-32768.0,262.0,232.0
12:33:21,-32768.0,262.0,232.0
12:33:21,-32768.0,262.0,232.0
12:33:21,-32768.0,262.0,231.0
12:33:21,-32768.0,262.0,231.0
12:33:21,-32768.0,262.0,231.0
12:33:21,-32768.0,262.0,231.0
12:33:21,-32768.0,263.0,232.0
12:33:21,-32768.0,263.0,232.0
12:33:21,-32768.0,263.0,232.0
12:33:21,-32768.0,263.0,232.0
12:33:21,-32768.0,262.0,232.0
12:33:21,-32768.0,262.0,232.0
12:33:21,-32768.0,262.0,232.0
12:33:21,-32768.0,262.0,232.0
12:33:21,-32768.0,262.0,232.0
12:33:21,-32768.0,262.0,232.0
12:33:21,-32768.0,262.0,232.0
12:33:21,-32768.0,262.0,232.0
12:33:21,-32768.0,264.0,231.0
12:33:21,-32768.0,264.0,231.0
12:33:21,-32768.0,264.0,231.0
12:33:21,-32768.0,264.0,231.0
12:33:21,-32768.0,261.0,233.0
12:33:21,-32768.0,261.0,233.0
12:33:21,-32768.0,261.0,233.0
12:33:21,-32768.0,261.0,233.0
12:33:21,-32768.0,263.0,233.0
12:33:21,-32768.0,263.0,233.0
12:33:21,-32768.0,263.0,233.0
12:33:21,-32768.0,263.0,233.0
12:33:21,32767.0,263.0,231.0
12:33:21,32767.0,263.0,231.0
12:33:21,32767.0,263.0,231.0
12:33:21,32767.0,263.0,231.0
12:33:21,32767.0,264.0,232.0
12:33:21,32767.0,264.0,232.0
12:33:21,32767.0,264.0,232.0
12:33:21,32767.0,264.0,232.0
12:33:21,-32768.0,263.0,232.0
12:33:21,-32768.0,263.0,232.0
12:33:21,-32768.0,263.0,232.0
12:33:21,-32768.0,263.0,232.0
12:33:21,6991.0,262.0,232.0
12:33:21,6991.0,262.0,232.0
12:33:21,6991.0,262.0,232.0
12:33:21,6991.0,262.0,232.0
12:33:21,32767.0,264.0,231.0
12:33:21,32767.0,264.0,231.0
12:33:21,32767.0,264.0,231.0
12:33:21,32767.0,264.0,231.0
12:33:21,32767.0,263.0,233.0
12:33:21,32767.0,263.0,233.0
12:33:21,32767.0,263.0,233.0
12:33:21,32767.0,263.0,233.0
12:33:21,32767.0,263.0,231.0
12:33:21,32767.0,263.0,231.0
12:33:21,32767.0,263.0,231.0
12:33:21,32767.0,263.0,231.0
12:33:21,96.0,263.0,232.0
12:33:21,96.0,263.0,232.0
12:33:21,96.0,263.0,232.0
12:33:21,96.0,263.0,232.0
12:33:21,32767.0,263.0,231.0
12:33:21,32767.0,263.0,231.0
12:33:21,32767.0,263.0,231.0
12:33:21,32767.0,263.0,231.0
12:33:21,-10838.0,261.0,231.0
12:33:21,-10838.0,261.0,231.0
12:33:21,-10838.0,261.0,231.0
12:33:21,-10838.0,261.0,231.0
12:33:21,-32768.0,263.0,232.0
12:33:21,-32768.0,263.0,232.0
12:33:21,-32768.0,263.0,232.0
12:33:21,-32768.0,263.0,232.0
12:33:21,32767.0,263.0,230.0
12:33:21,32767.0,263.0,230.0
12:33:21,32767.0,263.0,230.0
12:33:21,32767.0,263.0,230.0
12:33:21,-32768.0,262.0,230.0
12:33:21,-32768.0,262.0,230.0
12:33:21,-32768.0,262.0,230.0
12:33:21,-32768.0,262.0,230.0
12:33:21,-32768.0,262.0,230.0
12:33:21,-32768.0,262.0,230.0
12:33:21,-32768.0,262.0,230.0
12:33:21,-32768.0,262.0,230.0
12:33:21,-32768.0,262.0,230.0
12:33:21,-32768.0,262.0,230.0
12:33:21,-32768.0,262.0,230.0
12:33:21,-32768.0,262.0,230.0
12:33:21,-32768.0,262.0,230.0
12:33:21,-32768.0,262.0,230.0
12:33:21,-32768.0,262.0,230.0
12:33:21,-32768.0,262.0,230.0
12:33:21,-32768.0,261.0,230.0
12:33:21,-32768.0,261.0,230.0
12:33:21,-32768.0,261.0,230.0
12:33:21,-32768.0,261.0,230.0
12:33:21,-3.0,262.0,230.0
12:33:21,-3.0,262.0,230.0
12:33:21,-3.0,262.0,230.0
12:33:21,-3.0,262.0,230.0
12:33:21,-32768.0,262.0,229.0
12:33:21,-32768.0,262.0,229.0
12:33:21,-32768.0,262.0,229.0
12:33:21,-32768.0,262.0,229.0
12:33:21,-32768.0,261.0,230.0
12:33:21,-32768.0,261.0,230.0
12:33:21,-32768.0,261.0,230.0
12:33:21,-32768.0,261.0,230.0
12:33:21,-32768.0,260.0,230.0
12:33:21,-32768.0,260.0,230.0
12:33:21,-32768.0,260.0,230.0
12:33:21,-32768.0,260.0,230.0
12:33:21,-32768.0,260.0,228.0
12:33:21,-32768.0,260.0,228.0
12:33:21,-32768.0,260.0,228.0
12:33:21,-32768.0,260.0,228.0
12:33:21,-32768.0,260.0,230.0
12:33:21,-32768.0,260.0,230.0
12:33:21,-32768.0,260.0,230.0
12:33:21,-32768.0,260.0,230.0
12:33:21,-32768.0,260.0,229.0
12:33:21,-32768.0,260.0,229.0
12:33:21,-32768.0,260.0,229.0
12:33:21,-32768.0,260.0,229.0
12:33:21,-32768.0,261.0,228.0
12:33:21,-32768.0,261.0,228.0
12:33:21,-32768.0,261.0,228.0
12:33:21,-32768.0,261.0,228.0
12:33:21,-32768.0,259.0,229.0
12:33:21,-32768.0,259.0,229.0
12:33:21,-32768.0,259.0,229.0
12:33:21,-32768.0,259.0,229.0
12:33:21,-32768.0,259.0,229.0
12:33:21,-32768.0,259.0,229.0
12:33:21,-32768.0,259.0,229.0
12:33:21,-32768.0,259.0,229.0
12:33:21,-32768.0,261.0,227.0
12:33:21,-32768.0,261.0,227.0
12:33:21,-32768.0,261.0,227.0
12:33:21,-32768.0,261.0,227.0
12:33:21,-32768.0,258.0,229.0
12:33:21,-32768.0,258.0,229.0
12:33:21,-32768.0,258.0,229.0
12:33:21,-32768.0,258.0,229.0
12:33:21,-32768.0,260.0,229.0
12:33:21,-32768.0,260.0,229.0
12:33:21,-32768.0,260.0,229.0
12:33:21,-32768.0,260.0,229.0
12:33:21,-14414.0,258.0,227.0
12:33:21,-14414.0,258.0,227.0
12:33:21,-14414.0,258.0,227.0
12:33:21,-14414.0,258.0,227.0
12:33:21,-29690.0,259.0,228.0
12:33:21,-29690.0,259.0,228.0
12:33:21,-29690.0,259.0,228.0
12:33:21,-29690.0,259.0,228.0
12:33:21,-32768.0,259.0,227.0
12:33:21,-32768.0,259.0,227.0
12:33:22,-32768.0,259.0,227.0
12:33:22,-32768.0,259.0,227.0
12:33:22,32762.0,259.0,227.0
12:33:22,32762.0,259.0,227.0
12:33:22,32762.0,259.0,227.0
12:33:22,32762.0,259.0,227.0
12:33:22,-32768.0,259.0,228.0
12:33:22,-32768.0,259.0,228.0
12:33:22,-32768.0,259.0,228.0
12:33:22,-32768.0,259.0,228.0
12:33:22,-32768.0,257.0,228.0
12:33:22,-32768.0,257.0,228.0
12:33:22,-32768.0,257.0,228.0
12:33:22,-32768.0,257.0,228.0
12:33:22,-32768.0,258.0,226.0
12:33:22,-32768.0,258.0,226.0
12:33:22,-32768.0,258.0,226.0
12:33:22,-32768.0,258.0,226.0
12:33:22,-26389.0,258.0,228.0
12:33:22,-26389.0,258.0,228.0
12:33:22,-26389.0,258.0,228.0
12:33:22,-26389.0,258.0,228.0
12:33:22,22596.0,257.0,227.0
12:33:22,22596.0,257.0,227.0
12:33:22,22596.0,257.0,227.0
12:33:22,22596.0,257.0,227.0
12:33:22,-32768.0,259.0,226.0
12:33:22,-32768.0,259.0,226.0
12:33:22,-32768.0,259.0,226.0
12:33:22,-32768.0,259.0,226.0
12:33:22,32767.0,259.0,229.0
12:33:22,32767.0,259.0,229.0
12:33:22,32767.0,259.0,229.0
12:33:22,32767.0,259.0,229.0
12:33:22,32767.0,259.0,227.0
12:33:22,32767.0,259.0,227.0
12:33:22,32767.0,259.0,227.0
12:33:22,32767.0,259.0,227.0
12:33:22,-4970.0,259.0,227.0
12:33:22,-4970.0,259.0,227.0
12:33:22,-4970.0,259.0,227.0
12:33:22,-4970.0,259.0,227.0
12:33:22,-32768.0,258.0,227.0
12:33:22,-32768.0,258.0,227.0
12:33:22,-32768.0,258.0,227.0
12:33:22,-32768.0,258.0,227.0
12:33:22,-32768.0,258.0,228.0
12:33:22,-32768.0,258.0,228.0
12:33:22,-32768.0,258.0,228.0
12:33:22,-32768.0,258.0,228.0
12:33:22,-32768.0,258.0,226.0
12:33:22,-32768.0,258.0,226.0
12:33:22,-32768.0,258.0,226.0
12:33:22,-32768.0,258.0,226.0
12:33:22,-23542.0,257.0,228.0
12:33:22,-23542.0,257.0,228.0
12:33:22,-23542.0,257.0,228.0
12:33:22,-23542.0,257.0,228.0
12:33:22,-32768.0,258.0,227.0
12:33:22,-32768.0,258.0,227.0
12:33:22,-32768.0,258.0,227.0
12:33:22,-32768.0,258.0,227.0
12:33:22,-32768.0,257.0,226.0
12:33:22,-32768.0,257.0,226.0
12:33:22,-32768.0,257.0,226.0
12:33:22,-32768.0,257.0,226.0
12:33:22,-32768.0,258.0,227.0
12:33:22,-32768.0,258.0,227.0
12:33:22,-32768.0,258.0,227.0
12:33:22,-32768.0,258.0,227.0
12:33:22,-32768.0,258.0,227.0
