Wed Apr 16 15:58:59 IST 2025
TimeStamp,ECG,PPG
15:58:59,-1212.0,358.0,308.0
15:58:59,-1127.0,357.0,309.0
15:58:59,-1127.0,357.0,309.0
15:58:59,-1127.0,357.0,309.0
15:58:59,-1127.0,357.0,309.0
15:58:59,-1065.0,356.0,308.0
15:58:59,-1065.0,356.0,308.0
15:58:59,-1065.0,356.0,308.0
15:58:59,-1065.0,356.0,308.0
15:58:59,-999.0,358.0,306.0
15:58:59,-999.0,358.0,306.0
15:58:59,-999.0,358.0,306.0
15:58:59,-999.0,358.0,306.0
15:58:59,-989.0,357.0,309.0
15:58:59,-989.0,357.0,309.0
15:58:59,-989.0,357.0,309.0
15:58:59,-989.0,357.0,309.0
15:58:59,-1052.0,358.0,308.0
15:58:59,-1052.0,358.0,308.0
15:58:59,-1052.0,358.0,308.0
15:58:59,-1052.0,358.0,308.0
15:58:59,-1222.0,358.0,308.0
15:58:59,-1222.0,358.0,308.0
15:58:59,-1222.0,358.0,308.0
15:58:59,-1222.0,358.0,308.0
15:58:59,-1285.0,357.0,308.0
15:58:59,-1285.0,357.0,308.0
15:58:59,-1285.0,357.0,308.0
15:58:59,-1285.0,357.0,308.0
15:58:59,-1259.0,357.0,308.0
15:58:59,-1259.0,357.0,308.0
15:58:59,-1259.0,357.0,308.0
15:58:59,-1259.0,357.0,308.0
15:58:59,-1281.0,356.0,309.0
15:58:59,-1281.0,356.0,309.0
15:58:59,-1281.0,356.0,309.0
15:58:59,-1281.0,356.0,309.0
15:58:59,-1289.0,356.0,308.0
15:58:59,-1289.0,356.0,308.0
15:58:59,-1289.0,356.0,308.0
15:58:59,-1289.0,356.0,308.0
15:58:59,-1267.0,357.0,308.0
15:58:59,-1267.0,357.0,308.0
15:58:59,-1267.0,357.0,308.0
15:58:59,-1267.0,357.0,308.0
15:58:59,-1249.0,357.0,309.0
15:58:59,-1249.0,357.0,309.0
15:58:59,-1249.0,357.0,309.0
15:58:59,-1249.0,357.0,309.0
15:58:59,-1255.0,357.0,309.0
15:58:59,-1255.0,357.0,309.0
15:58:59,-1255.0,357.0,309.0
15:58:59,-1255.0,357.0,309.0
15:58:59,-1212.0,356.0,309.0
15:58:59,-1212.0,356.0,309.0
15:58:59,-1212.0,356.0,309.0
15:58:59,-1212.0,356.0,309.0
15:58:59,-1238.0,357.0,308.0
15:58:59,-1238.0,357.0,308.0
15:58:59,-1238.0,357.0,308.0
15:58:59,-1238.0,357.0,308.0
15:58:59,-1199.0,357.0,309.0
15:58:59,-1199.0,357.0,309.0
15:58:59,-1199.0,357.0,309.0
15:58:59,-1199.0,357.0,309.0
15:58:59,-1204.0,357.0,308.0
15:58:59,-1204.0,357.0,308.0
15:58:59,-1204.0,357.0,308.0
15:58:59,-1204.0,357.0,308.0
15:58:59,-1210.0,357.0,309.0
15:58:59,-1210.0,357.0,309.0
15:58:59,-1210.0,357.0,309.0
15:58:59,-1210.0,357.0,309.0
15:58:59,-1220.0,355.0,309.0
15:58:59,-1220.0,355.0,309.0
15:58:59,-1220.0,355.0,309.0
15:58:59,-1220.0,355.0,309.0
15:58:59,-1206.0,357.0,309.0
15:58:59,-1206.0,357.0,309.0
15:58:59,-1206.0,357.0,309.0
15:58:59,-1206.0,357.0,309.0
15:58:59,-1207.0,356.0,308.0
15:58:59,-1207.0,356.0,308.0
15:58:59,-1207.0,356.0,308.0
15:58:59,-1207.0,356.0,308.0
15:58:59,-1177.0,356.0,309.0
15:58:59,-1177.0,356.0,309.0
15:58:59,-1177.0,356.0,309.0
15:58:59,-1177.0,356.0,309.0
15:58:59,-1224.0,357.0,310.0
15:58:59,-1224.0,357.0,310.0
15:58:59,-1224.0,357.0,310.0
15:59:00,-1224.0,357.0,310.0
15:59:00,-1215.0,358.0,310.0
15:59:00,-1215.0,358.0,310.0
15:59:00,-1215.0,358.0,310.0
15:59:00,-1215.0,358.0,310.0
15:59:00,-1168.0,358.0,308.0
15:59:00,-1168.0,358.0,308.0
15:59:00,-1168.0,358.0,308.0
15:59:00,-1168.0,358.0,308.0
15:59:00,-1192.0,358.0,310.0
15:59:00,-1192.0,358.0,310.0
15:59:00,-1192.0,358.0,310.0
15:59:00,-1192.0,358.0,310.0
15:59:00,-1097.0,358.0,309.0
15:59:00,-1097.0,358.0,309.0
15:59:00,-1097.0,358.0,309.0
15:59:00,-1097.0,358.0,309.0
15:59:00,-1117.0,357.0,309.0
15:59:00,-1117.0,357.0,309.0
15:59:00,-1117.0,357.0,309.0
15:59:00,-1117.0,357.0,309.0
15:59:00,-1135.0,357.0,310.0
15:59:00,-1135.0,357.0,310.0
15:59:00,-1135.0,357.0,310.0
15:59:00,-1135.0,357.0,310.0
15:59:00,-1219.0,357.0,309.0
15:59:00,-1219.0,357.0,309.0
15:59:00,-1219.0,357.0,309.0
15:59:00,-1219.0,357.0,309.0
15:59:00,-1222.0,357.0,309.0
15:59:00,-1222.0,357.0,309.0
15:59:00,-1222.0,357.0,309.0
15:59:00,-1222.0,357.0,309.0
15:59:00,-1078.0,358.0,309.0
15:59:00,-1078.0,358.0,309.0
15:59:00,-1078.0,358.0,309.0
15:59:00,-1078.0,358.0,309.0
15:59:00,-98.0,357.0,308.0
15:59:00,-98.0,357.0,308.0
15:59:00,-98.0,357.0,308.0
15:59:00,-98.0,357.0,308.0
15:59:00,-898.0,358.0,308.0
15:59:00,-898.0,358.0,308.0
15:59:00,-898.0,358.0,308.0
15:59:00,-898.0,358.0,308.0
15:59:00,-1198.0,356.0,308.0
15:59:00,-1198.0,356.0,308.0
15:59:00,-1198.0,356.0,308.0
15:59:00,-1198.0,356.0,308.0
15:59:00,-1219.0,357.0,309.0
15:59:00,-1219.0,357.0,309.0
15:59:00,-1219.0,357.0,309.0
15:59:00,-1219.0,357.0,309.0
15:59:00,-1192.0,358.0,308.0
15:59:00,-1192.0,358.0,308.0
15:59:00,-1192.0,358.0,308.0
15:59:00,-1192.0,358.0,308.0
15:59:00,-1198.0,357.0,310.0
15:59:00,-1198.0,357.0,310.0
15:59:00,-1198.0,357.0,310.0
15:59:00,-1198.0,357.0,310.0
15:59:00,-1160.0,357.0,310.0
15:59:00,-1160.0,357.0,310.0
15:59:00,-1160.0,357.0,310.0
15:59:00,-1160.0,357.0,310.0
15:59:00,-1114.0,358.0,308.0
15:59:00,-1114.0,358.0,308.0
15:59:00,-1114.0,358.0,308.0
15:59:00,-1114.0,358.0,308.0
15:59:00,-1064.0,356.0,310.0
15:59:00,-1064.0,356.0,310.0
15:59:00,-1064.0,356.0,310.0
15:59:00,-1064.0,356.0,310.0
15:59:00,-1016.0,358.0,308.0
15:59:00,-1016.0,358.0,308.0
15:59:00,-1016.0,358.0,308.0
15:59:00,-1016.0,358.0,308.0
15:59:00,-909.0,357.0,310.0
15:59:00,-909.0,357.0,310.0
15:59:00,-909.0,357.0,310.0
15:59:00,-909.0,357.0,310.0
15:59:00,-875.0,358.0,309.0
15:59:00,-875.0,358.0,309.0
15:59:00,-875.0,358.0,309.0
15:59:00,-875.0,358.0,309.0
15:59:00,-874.0,359.0,309.0
15:59:00,-874.0,359.0,309.0
15:59:00,-874.0,359.0,309.0
15:59:00,-874.0,359.0,309.0
15:59:00,-1034.0,358.0,309.0
15:59:00,-1034.0,358.0,309.0
15:59:00,-1034.0,358.0,309.0
15:59:00,-1034.0,358.0,309.0
15:59:00,-1100.0,356.0,309.0
15:59:00,-1100.0,356.0,309.0
15:59:00,-1100.0,356.0,309.0
15:59:00,-1100.0,356.0,309.0
15:59:00,-1167.0,358.0,309.0
15:59:00,-1167.0,358.0,309.0
15:59:00,-1167.0,358.0,309.0
15:59:00,-1167.0,358.0,309.0
15:59:00,-1174.0,357.0,309.0
15:59:00,-1174.0,357.0,309.0
15:59:00,-1174.0,357.0,309.0
15:59:00,-1174.0,357.0,309.0
15:59:00,-1128.0,356.0,310.0
15:59:00,-1128.0,356.0,310.0
15:59:00,-1128.0,356.0,310.0
15:59:00,-1128.0,356.0,310.0
15:59:00,-1130.0,356.0,310.0
15:59:00,-1130.0,356.0,310.0
15:59:00,-1130.0,356.0,310.0
15:59:00,-1130.0,356.0,310.0
15:59:00,-1116.0,356.0,310.0
15:59:00,-1116.0,356.0,310.0
15:59:00,-1116.0,356.0,310.0
15:59:00,-1116.0,356.0,310.0
15:59:00,-1147.0,358.0,309.0
15:59:00,-1147.0,358.0,309.0
15:59:00,-1147.0,358.0,309.0
15:59:00,-1147.0,358.0,309.0
15:59:00,-1093.0,357.0,309.0
15:59:00,-1093.0,357.0,309.0
15:59:00,-1093.0,357.0,309.0
15:59:00,-1093.0,357.0,309.0
15:59:00,-1062.0,357.0,309.0
15:59:00,-1062.0,357.0,309.0
15:59:00,-1062.0,357.0,309.0
15:59:00,-1062.0,357.0,309.0
15:59:00,-1072.0,358.0,309.0
15:59:00,-1072.0,358.0,309.0
15:59:00,-1072.0,358.0,309.0
15:59:00,-1072.0,358.0,309.0
15:59:00,-1084.0,357.0,309.0
15:59:00,-1084.0,357.0,309.0
15:59:00,-1084.0,357.0,309.0
15:59:00,-1084.0,357.0,309.0
15:59:00,-1067.0,357.0,310.0
15:59:00,-1067.0,357.0,310.0
15:59:00,-1067.0,357.0,310.0
15:59:00,-1067.0,357.0,310.0
15:59:00,-1050.0,357.0,311.0
15:59:00,-1050.0,357.0,311.0
15:59:00,-1050.0,357.0,311.0
15:59:00,-1050.0,357.0,311.0
15:59:00,-1089.0,358.0,309.0
15:59:00,-1089.0,358.0,309.0
15:59:00,-1089.0,358.0,309.0
15:59:00,-1089.0,358.0,309.0
15:59:00,-1091.0,359.0,309.0
15:59:00,-1091.0,359.0,309.0
15:59:00,-1091.0,359.0,309.0
15:59:00,-1091.0,359.0,309.0
15:59:00,-1026.0,358.0,309.0
15:59:00,-1026.0,358.0,309.0
15:59:00,-1026.0,358.0,309.0
15:59:00,-1026.0,358.0,309.0
15:59:00,-1081.0,357.0,309.0
15:59:00,-1081.0,357.0,309.0
15:59:00,-1081.0,357.0,309.0
15:59:00,-1081.0,357.0,309.0
15:59:00,-1064.0,358.0,309.0
15:59:00,-1064.0,358.0,309.0
15:59:00,-1064.0,358.0,309.0
15:59:00,-1064.0,358.0,309.0
15:59:00,-1060.0,357.0,309.0
15:59:00,-1060.0,357.0,309.0
15:59:00,-1060.0,357.0,309.0
15:59:00,-1060.0,357.0,309.0
15:59:00,-1013.0,358.0,309.0
15:59:00,-1013.0,358.0,309.0
15:59:00,-1013.0,358.0,309.0
15:59:00,-1013.0,358.0,309.0
15:59:00,-939.0,357.0,309.0
15:59:00,-939.0,357.0,309.0
15:59:00,-939.0,357.0,309.0
15:59:00,-939.0,357.0,309.0
15:59:00,-963.0,357.0,309.0
15:59:00,-963.0,357.0,309.0
15:59:00,-963.0,357.0,309.0
15:59:00,-963.0,357.0,309.0
15:59:00,-1003.0,357.0,308.0
15:59:00,-1003.0,357.0,308.0
15:59:00,-1003.0,357.0,308.0
15:59:00,-1003.0,357.0,308.0
15:59:00,-1048.0,357.0,308.0
15:59:00,-1048.0,357.0,308.0
15:59:00,-1048.0,357.0,308.0
15:59:00,-1048.0,357.0,308.0
15:59:00,-1081.0,358.0,309.0
15:59:00,-1081.0,358.0,309.0
15:59:00,-1081.0,358.0,309.0
15:59:00,-1081.0,358.0,309.0
15:59:00,-890.0,357.0,308.0
15:59:00,-890.0,357.0,308.0
15:59:00,-890.0,357.0,308.0
15:59:00,-890.0,357.0,308.0
15:59:00,-10.0,358.0,308.0
15:59:00,-10.0,358.0,308.0
15:59:00,-10.0,358.0,308.0
15:59:00,-10.0,358.0,308.0
15:59:01,-872.0,357.0,308.0
15:59:01,-872.0,357.0,308.0
15:59:01,-872.0,357.0,308.0
15:59:01,-872.0,357.0,308.0
15:59:01,-1042.0,357.0,307.0
15:59:01,-1042.0,357.0,307.0
15:59:01,-1042.0,357.0,307.0
15:59:01,-1042.0,357.0,307.0
15:59:01,-1082.0,356.0,309.0
15:59:01,-1082.0,356.0,309.0
15:59:01,-1082.0,356.0,309.0
15:59:01,-1082.0,356.0,309.0
15:59:01,-1028.0,356.0,309.0
15:59:01,-1028.0,356.0,309.0
15:59:01,-1028.0,356.0,309.0
15:59:01,-1028.0,356.0,309.0
15:59:01,-1003.0,358.0,310.0
15:59:01,-1003.0,358.0,310.0
15:59:01,-1003.0,358.0,310.0
15:59:01,-1003.0,358.0,310.0
15:59:01,-978.0,359.0,309.0
15:59:01,-978.0,359.0,309.0
15:59:01,-978.0,359.0,309.0
15:59:01,-978.0,359.0,309.0
15:59:01,-968.0,357.0,310.0
15:59:01,-968.0,357.0,310.0
15:59:01,-968.0,357.0,310.0
15:59:01,-968.0,357.0,310.0
15:59:01,-906.0,357.0,310.0
15:59:01,-906.0,357.0,310.0
15:59:01,-906.0,357.0,310.0
15:59:01,-906.0,357.0,310.0
15:59:01,-860.0,358.0,308.0
15:59:01,-860.0,358.0,308.0
15:59:01,-860.0,358.0,308.0
15:59:01,-860.0,358.0,308.0
15:59:01,-796.0,358.0,309.0
15:59:01,-796.0,358.0,309.0
15:59:01,-796.0,358.0,309.0
15:59:01,-796.0,358.0,309.0
15:59:01,-714.0,357.0,308.0
15:59:01,-714.0,357.0,308.0
15:59:01,-714.0,357.0,308.0
15:59:01,-714.0,357.0,308.0
15:59:01,-751.0,357.0,310.0
15:59:01,-751.0,357.0,310.0
15:59:01,-751.0,357.0,310.0
15:59:01,-751.0,357.0,310.0
15:59:01,-888.0,359.0,309.0
15:59:01,-888.0,359.0,309.0
15:59:01,-888.0,359.0,309.0
15:59:01,-888.0,359.0,309.0
15:59:01,-949.0,357.0,309.0
15:59:01,-949.0,357.0,309.0
15:59:01,-949.0,357.0,309.0
15:59:01,-949.0,357.0,309.0
15:59:01,-1019.0,357.0,310.0
15:59:01,-1019.0,357.0,310.0
15:59:01,-1019.0,357.0,310.0
15:59:01,-1019.0,357.0,310.0
15:59:01,-1023.0,359.0,307.0
15:59:01,-1023.0,359.0,307.0
15:59:01,-1023.0,359.0,307.0
15:59:01,-1023.0,359.0,307.0
15:59:01,-1009.0,357.0,307.0
15:59:01,-1009.0,357.0,307.0
15:59:01,-1009.0,357.0,307.0
15:59:01,-1009.0,357.0,307.0
15:59:01,-985.0,356.0,308.0
15:59:01,-985.0,356.0,308.0
15:59:01,-985.0,356.0,308.0
15:59:01,-985.0,356.0,308.0
15:59:01,-975.0,357.0,310.0
15:59:01,-975.0,357.0,310.0
15:59:01,-975.0,357.0,310.0
15:59:01,-975.0,357.0,310.0
15:59:01,-951.0,357.0,308.0
15:59:01,-951.0,357.0,308.0
15:59:01,-951.0,357.0,308.0
15:59:01,-951.0,357.0,308.0
15:59:01,-938.0,357.0,308.0
15:59:01,-938.0,357.0,308.0
15:59:01,-938.0,357.0,308.0
15:59:01,-938.0,357.0,308.0
15:59:01,-925.0,357.0,309.0
15:59:01,-925.0,357.0,309.0
15:59:01,-925.0,357.0,309.0
15:59:01,-925.0,357.0,309.0
15:59:01,-950.0,357.0,308.0
15:59:01,-950.0,357.0,308.0
15:59:01,-950.0,357.0,308.0
15:59:01,-950.0,357.0,308.0
15:59:01,-936.0,356.0,308.0
15:59:01,-936.0,356.0,308.0
15:59:01,-936.0,356.0,308.0
15:59:01,-936.0,356.0,308.0
15:59:01,-916.0,358.0,308.0
15:59:01,-916.0,358.0,308.0
15:59:01,-916.0,358.0,308.0
15:59:01,-916.0,358.0,308.0
15:59:01,-924.0,356.0,308.0
15:59:01,-924.0,356.0,308.0
15:59:01,-924.0,356.0,308.0
15:59:01,-924.0,356.0,308.0
15:59:01,-904.0,356.0,307.0
15:59:01,-904.0,356.0,307.0
15:59:01,-904.0,356.0,307.0
15:59:01,-904.0,356.0,307.0
15:59:01,-878.0,357.0,309.0
15:59:01,-878.0,357.0,309.0
15:59:01,-878.0,357.0,309.0
15:59:01,-878.0,357.0,309.0
15:59:01,-903.0,356.0,308.0
15:59:01,-903.0,356.0,308.0
15:59:01,-903.0,356.0,308.0
15:59:01,-903.0,356.0,308.0
15:59:01,-894.0,357.0,308.0
15:59:01,-894.0,357.0,308.0
15:59:01,-894.0,357.0,308.0
15:59:01,-894.0,357.0,308.0
15:59:01,-802.0,356.0,308.0
15:59:01,-802.0,356.0,308.0
15:59:01,-802.0,356.0,308.0
15:59:01,-802.0,356.0,308.0
15:59:01,-857.0,357.0,308.0
15:59:01,-857.0,357.0,308.0
15:59:01,-857.0,357.0,308.0
15:59:01,-857.0,357.0,308.0
15:59:01,-891.0,357.0,308.0
15:59:01,-891.0,357.0,308.0
15:59:01,-891.0,357.0,308.0
15:59:01,-891.0,357.0,308.0
15:59:01,-909.0,357.0,309.0
15:59:01,-909.0,357.0,309.0
15:59:01,-909.0,357.0,309.0
15:59:01,-909.0,357.0,309.0
15:59:01,-868.0,357.0,309.0
15:59:01,-868.0,357.0,309.0
15:59:01,-868.0,357.0,309.0
15:59:01,-868.0,357.0,309.0
15:59:01,-134.0,357.0,309.0
15:59:01,-134.0,357.0,309.0
15:59:01,-134.0,357.0,309.0
15:59:01,-134.0,357.0,309.0
15:59:01,-479.0,356.0,309.0
15:59:01,-479.0,356.0,309.0
15:59:01,-479.0,356.0,309.0
15:59:01,-479.0,356.0,309.0
15:59:01,-915.0,357.0,309.0
15:59:01,-915.0,357.0,309.0
15:59:01,-915.0,357.0,309.0
15:59:01,-915.0,357.0,309.0
15:59:01,-923.0,356.0,309.0
15:59:01,-923.0,356.0,309.0
15:59:01,-923.0,356.0,309.0
15:59:01,-923.0,356.0,309.0
15:59:01,-874.0,357.0,309.0
15:59:01,-874.0,357.0,309.0
15:59:01,-874.0,357.0,309.0
15:59:01,-874.0,357.0,309.0
15:59:01,-912.0,359.0,310.0
15:59:01,-912.0,359.0,310.0
15:59:01,-912.0,359.0,310.0
15:59:01,-912.0,359.0,310.0
15:59:01,-841.0,357.0,309.0
15:59:01,-841.0,357.0,309.0
15:59:01,-841.0,357.0,309.0
15:59:01,-841.0,357.0,309.0
15:59:01,-839.0,358.0,309.0
15:59:01,-839.0,358.0,309.0
15:59:01,-839.0,358.0,309.0
15:59:01,-839.0,358.0,309.0
15:59:01,-785.0,357.0,310.0
15:59:01,-785.0,357.0,310.0
15:59:01,-785.0,357.0,310.0
15:59:01,-785.0,357.0,310.0
15:59:01,-732.0,359.0,309.0
15:59:01,-732.0,359.0,309.0
15:59:01,-732.0,359.0,309.0
15:59:01,-732.0,359.0,309.0
15:59:01,-678.0,357.0,310.0
15:59:01,-678.0,357.0,310.0
15:59:01,-678.0,357.0,310.0
15:59:01,-678.0,357.0,310.0
15:59:01,-616.0,359.0,309.0
15:59:01,-616.0,359.0,309.0
15:59:01,-616.0,359.0,309.0
15:59:01,-616.0,359.0,309.0
15:59:01,-585.0,357.0,309.0
15:59:01,-585.0,357.0,309.0
15:59:01,-585.0,357.0,309.0
15:59:01,-585.0,357.0,309.0
15:59:01,-701.0,357.0,310.0
15:59:01,-701.0,357.0,310.0
15:59:01,-701.0,357.0,310.0
15:59:01,-701.0,357.0,310.0
15:59:01,-866.0,357.0,308.0
15:59:01,-866.0,357.0,308.0
15:59:01,-866.0,357.0,308.0
15:59:01,-866.0,357.0,308.0
15:59:01,-874.0,357.0,310.0
15:59:02,-874.0,357.0,310.0
15:59:02,-874.0,357.0,310.0
15:59:02,-874.0,357.0,310.0
15:59:02,-916.0,358.0,309.0
15:59:02,-916.0,358.0,309.0
15:59:02,-916.0,358.0,309.0
15:59:02,-916.0,358.0,309.0
15:59:02,-890.0,358.0,309.0
15:59:02,-890.0,358.0,309.0
15:59:02,-890.0,358.0,309.0
15:59:02,-890.0,358.0,309.0
15:59:02,-857.0,358.0,309.0
15:59:02,-857.0,358.0,309.0
15:59:02,-857.0,358.0,309.0
15:59:02,-857.0,358.0,309.0
15:59:02,-902.0,357.0,309.0
15:59:02,-902.0,357.0,309.0
15:59:02,-902.0,357.0,309.0
15:59:02,-902.0,357.0,309.0
15:59:02,-884.0,359.0,309.0
15:59:02,-884.0,359.0,309.0
15:59:02,-884.0,359.0,309.0
15:59:02,-884.0,359.0,309.0
15:59:02,-865.0,357.0,310.0
15:59:02,-865.0,357.0,310.0
15:59:02,-865.0,357.0,310.0
15:59:02,-865.0,357.0,310.0
15:59:02,-825.0,358.0,309.0
15:59:02,-825.0,358.0,309.0
15:59:02,-825.0,358.0,309.0
15:59:02,-825.0,358.0,309.0
15:59:02,-883.0,357.0,309.0
15:59:02,-883.0,357.0,309.0
15:59:02,-883.0,357.0,309.0
15:59:02,-883.0,357.0,309.0
15:59:02,-832.0,358.0,308.0
15:59:02,-832.0,358.0,308.0
15:59:02,-832.0,358.0,308.0
15:59:02,-832.0,358.0,308.0
15:59:02,-790.0,357.0,309.0
15:59:02,-790.0,357.0,309.0
15:59:02,-790.0,357.0,309.0
15:59:02,-790.0,357.0,309.0
15:59:02,-819.0,358.0,309.0
15:59:02,-819.0,358.0,309.0
15:59:02,-819.0,358.0,309.0
15:59:02,-819.0,358.0,309.0
15:59:02,-801.0,357.0,309.0
15:59:02,-801.0,357.0,309.0
15:59:02,-801.0,357.0,309.0
15:59:02,-801.0,357.0,309.0
15:59:02,-754.0,358.0,309.0
15:59:02,-754.0,358.0,309.0
15:59:02,-754.0,358.0,309.0
15:59:02,-754.0,358.0,309.0
15:59:02,-764.0,357.0,309.0
15:59:02,-764.0,357.0,309.0
15:59:02,-764.0,357.0,309.0
15:59:02,-764.0,357.0,309.0
15:59:02,-766.0,357.0,310.0
15:59:02,-766.0,357.0,310.0
15:59:02,-766.0,357.0,310.0
15:59:02,-766.0,357.0,310.0
15:59:02,-842.0,357.0,310.0
15:59:02,-842.0,357.0,310.0
15:59:02,-842.0,357.0,310.0
15:59:02,-842.0,357.0,310.0
15:59:02,-827.0,357.0,310.0
15:59:02,-827.0,357.0,310.0
15:59:02,-827.0,357.0,310.0
15:59:02,-827.0,357.0,310.0
15:59:02,-727.0,357.0,309.0
15:59:02,-727.0,357.0,309.0
15:59:02,-727.0,357.0,309.0
15:59:02,-727.0,357.0,309.0
15:59:02,99.0,357.0,310.0
15:59:02,99.0,357.0,310.0
15:59:02,99.0,357.0,310.0
15:59:02,99.0,357.0,310.0
15:59:02,-571.0,357.0,308.0
15:59:02,-571.0,357.0,308.0
15:59:02,-571.0,357.0,308.0
15:59:02,-571.0,357.0,308.0
15:59:02,-850.0,357.0,309.0
15:59:02,-850.0,357.0,309.0
15:59:02,-850.0,357.0,309.0
15:59:02,-850.0,357.0,309.0
15:59:02,-854.0,357.0,310.0
15:59:02,-854.0,357.0,310.0
15:59:02,-854.0,357.0,310.0
15:59:02,-854.0,357.0,310.0
15:59:02,-816.0,358.0,310.0
15:59:02,-816.0,358.0,310.0
15:59:02,-816.0,358.0,310.0
15:59:02,-816.0,358.0,310.0
15:59:02,-790.0,358.0,309.0
15:59:02,-790.0,358.0,309.0
15:59:02,-790.0,358.0,309.0
15:59:02,-790.0,358.0,309.0
15:59:02,-791.0,358.0,310.0
15:59:02,-791.0,358.0,310.0
15:59:02,-791.0,358.0,310.0
15:59:02,-791.0,358.0,310.0
15:59:02,-764.0,358.0,309.0
15:59:02,-764.0,358.0,309.0
15:59:02,-764.0,358.0,309.0
15:59:02,-764.0,358.0,309.0
15:59:02,-733.0,357.0,310.0
15:59:02,-733.0,357.0,310.0
15:59:02,-733.0,357.0,310.0
15:59:02,-733.0,357.0,310.0
15:59:02,-663.0,357.0,310.0
15:59:02,-663.0,357.0,310.0
15:59:02,-663.0,357.0,310.0
15:59:02,-663.0,357.0,310.0
15:59:02,-545.0,356.0,310.0
15:59:02,-545.0,356.0,310.0
15:59:02,-545.0,356.0,310.0
15:59:02,-545.0,356.0,310.0
15:59:02,-561.0,358.0,308.0
15:59:02,-561.0,358.0,308.0
15:59:02,-561.0,358.0,308.0
15:59:02,-561.0,358.0,308.0
15:59:02,-599.0,357.0,309.0
15:59:02,-599.0,357.0,309.0
15:59:02,-599.0,357.0,309.0
15:59:02,-599.0,357.0,309.0
15:59:02,-697.0,357.0,308.0
15:59:02,-697.0,357.0,308.0
15:59:02,-697.0,357.0,308.0
15:59:02,-697.0,357.0,308.0
15:59:02,-757.0,357.0,310.0
15:59:02,-757.0,357.0,310.0
15:59:02,-757.0,357.0,310.0
15:59:02,-757.0,357.0,310.0
15:59:02,-837.0,358.0,307.0
15:59:02,-837.0,358.0,307.0
15:59:02,-837.0,358.0,307.0
15:59:02,-837.0,358.0,307.0
15:59:02,-794.0,354.0,307.0
15:59:02,-794.0,354.0,307.0
15:59:02,-794.0,354.0,307.0
15:59:02,-794.0,354.0,307.0
15:59:02,-817.0,352.0,307.0
15:59:02,-817.0,352.0,307.0
15:59:02,-817.0,352.0,307.0
15:59:02,-817.0,352.0,307.0
15:59:02,-805.0,354.0,307.0
15:59:02,-805.0,354.0,307.0
15:59:02,-805.0,354.0,307.0
15:59:02,-805.0,354.0,307.0
15:59:02,-797.0,356.0,310.0
15:59:02,-797.0,356.0,310.0
15:59:02,-797.0,356.0,310.0
15:59:02,-797.0,356.0,310.0
15:59:02,-794.0,359.0,313.0
15:59:02,-794.0,359.0,313.0
15:59:02,-794.0,359.0,313.0
15:59:02,-794.0,359.0,313.0
15:59:02,-753.0,363.0,320.0
15:59:02,-753.0,363.0,320.0
15:59:02,-753.0,363.0,320.0
15:59:02,-753.0,363.0,320.0
15:59:02,-753.0,369.0,326.0
15:59:02,-753.0,369.0,326.0
15:59:02,-753.0,369.0,326.0
15:59:02,-753.0,369.0,326.0
15:59:02,-748.0,373.0,332.0
15:59:02,-748.0,373.0,332.0
15:59:02,-748.0,373.0,332.0
15:59:02,-748.0,373.0,332.0
15:59:02,-785.0,376.0,334.0
15:59:02,-785.0,376.0,334.0
15:59:02,-785.0,376.0,334.0
15:59:02,-785.0,376.0,334.0
15:59:02,-758.0,377.0,339.0
15:59:02,-758.0,377.0,339.0
15:59:02,-758.0,377.0,339.0
15:59:02,-758.0,377.0,339.0
15:59:02,-748.0,380.0,342.0
15:59:02,-748.0,380.0,342.0
15:59:02,-748.0,380.0,342.0
15:59:02,-748.0,380.0,342.0
15:59:02,-761.0,379.0,343.0
15:59:02,-761.0,379.0,343.0
15:59:02,-761.0,379.0,343.0
15:59:02,-761.0,379.0,343.0
15:59:02,-751.0,379.0,340.0
15:59:02,-751.0,379.0,340.0
15:59:02,-751.0,379.0,340.0
15:59:02,-751.0,379.0,340.0
15:59:02,-748.0,376.0,338.0
15:59:02,-748.0,376.0,338.0
15:59:02,-748.0,376.0,338.0
15:59:02,-748.0,376.0,338.0
15:59:02,-644.0,374.0,338.0
15:59:02,-644.0,374.0,338.0
15:59:02,-644.0,374.0,338.0
15:59:02,-644.0,374.0,338.0
15:59:02,-716.0,373.0,335.0
15:59:02,-716.0,373.0,335.0
15:59:03,-716.0,373.0,335.0
15:59:03,-716.0,373.0,335.0
15:59:03,-777.0,372.0,333.0
15:59:03,-777.0,372.0,333.0
15:59:03,-777.0,372.0,333.0
15:59:03,-777.0,372.0,333.0
15:59:03,-779.0,371.0,332.0
15:59:03,-779.0,371.0,332.0
15:59:03,-779.0,371.0,332.0
15:59:03,-779.0,371.0,332.0
15:59:03,-809.0,370.0,332.0
15:59:03,-809.0,370.0,332.0
15:59:03,-809.0,370.0,332.0
15:59:03,-809.0,370.0,332.0
15:59:03,-346.0,370.0,332.0
15:59:03,-346.0,370.0,332.0
15:59:03,-346.0,370.0,332.0
15:59:03,-346.0,370.0,332.0
15:59:03,167.0,369.0,331.0
15:59:03,167.0,369.0,331.0
15:59:03,167.0,369.0,331.0
15:59:03,167.0,369.0,331.0
15:59:03,-698.0,369.0,332.0
15:59:03,-698.0,369.0,332.0
15:59:03,-698.0,369.0,332.0
15:59:03,-698.0,369.0,332.0
15:59:03,-808.0,370.0,332.0
15:59:03,-808.0,370.0,332.0
15:59:03,-808.0,370.0,332.0
15:59:03,-808.0,370.0,332.0
15:59:03,-795.0,370.0,333.0
15:59:03,-795.0,370.0,333.0
15:59:03,-795.0,370.0,333.0
15:59:03,-795.0,370.0,333.0
15:59:03,-759.0,369.0,332.0
15:59:03,-759.0,369.0,332.0
15:59:03,-759.0,369.0,332.0
15:59:03,-759.0,369.0,332.0
15:59:03,-760.0,368.0,332.0
15:59:03,-760.0,368.0,332.0
15:59:03,-760.0,368.0,332.0
15:59:03,-760.0,368.0,332.0
15:59:03,-735.0,368.0,331.0
15:59:03,-735.0,368.0,331.0
15:59:03,-735.0,368.0,331.0
15:59:03,-735.0,368.0,331.0
15:59:03,-724.0,368.0,329.0
15:59:03,-724.0,368.0,329.0
15:59:03,-724.0,368.0,329.0
15:59:03,-724.0,368.0,329.0
15:59:03,-657.0,366.0,329.0
15:59:03,-657.0,366.0,329.0
15:59:03,-657.0,366.0,329.0
15:59:03,-657.0,366.0,329.0
15:59:03,-572.0,366.0,329.0
15:59:03,-572.0,366.0,329.0
15:59:03,-572.0,366.0,329.0
15:59:03,-572.0,366.0,329.0
15:59:03,-522.0,366.0,329.0
15:59:03,-522.0,366.0,329.0
15:59:03,-522.0,366.0,329.0
15:59:03,-522.0,366.0,329.0
15:59:03,-442.0,366.0,327.0
15:59:03,-442.0,366.0,327.0
15:59:03,-442.0,366.0,327.0
15:59:03,-442.0,366.0,327.0
15:59:03,-537.0,365.0,325.0
15:59:03,-537.0,365.0,325.0
15:59:03,-537.0,365.0,325.0
15:59:03,-537.0,365.0,325.0
15:59:03,-649.0,366.0,328.0
15:59:03,-649.0,366.0,328.0
15:59:03,-649.0,366.0,328.0
15:59:03,-649.0,366.0,328.0
15:59:03,-716.0,366.0,329.0
15:59:03,-716.0,366.0,329.0
15:59:03,-716.0,366.0,329.0
15:59:03,-716.0,366.0,329.0
15:59:03,-750.0,367.0,328.0
15:59:03,-750.0,367.0,328.0
15:59:03,-750.0,367.0,328.0
15:59:03,-750.0,367.0,328.0
15:59:03,-742.0,366.0,328.0
15:59:03,-742.0,366.0,328.0
15:59:03,-742.0,366.0,328.0
15:59:03,-742.0,366.0,328.0
15:59:03,-733.0,366.0,327.0
15:59:03,-733.0,366.0,327.0
15:59:03,-733.0,366.0,327.0
15:59:03,-733.0,366.0,327.0
15:59:03,-720.0,366.0,329.0
15:59:03,-720.0,366.0,329.0
15:59:03,-720.0,366.0,329.0
15:59:03,-720.0,366.0,329.0
15:59:03,-688.0,367.0,328.0
15:59:03,-688.0,367.0,328.0
15:59:03,-688.0,367.0,328.0
15:59:03,-688.0,367.0,328.0
15:59:03,-673.0,366.0,328.0
15:59:03,-673.0,366.0,328.0
15:59:03,-673.0,366.0,328.0
15:59:03,-673.0,366.0,328.0
15:59:03,-679.0,367.0,327.0
15:59:03,-679.0,367.0,327.0
15:59:03,-679.0,367.0,327.0
15:59:03,-679.0,367.0,327.0
15:59:03,-691.0,365.0,327.0
15:59:03,-691.0,365.0,327.0
15:59:03,-691.0,365.0,327.0
15:59:03,-691.0,365.0,327.0
15:59:03,-689.0,365.0,325.0
15:59:03,-689.0,365.0,325.0
15:59:03,-689.0,365.0,325.0
15:59:03,-689.0,365.0,325.0
15:59:03,-679.0,363.0,323.0
15:59:03,-679.0,363.0,323.0
15:59:03,-679.0,363.0,323.0
15:59:03,-679.0,363.0,323.0
15:59:03,-708.0,364.0,322.0
15:59:03,-708.0,364.0,322.0
15:59:03,-708.0,364.0,322.0
15:59:03,-708.0,364.0,322.0
15:59:03,-681.0,363.0,322.0
15:59:03,-681.0,363.0,322.0
15:59:03,-681.0,363.0,322.0
15:59:03,-681.0,363.0,322.0
15:59:03,-695.0,363.0,320.0
15:59:03,-695.0,363.0,320.0
15:59:03,-695.0,363.0,320.0
15:59:03,-695.0,363.0,320.0
15:59:03,-678.0,362.0,319.0
15:59:03,-678.0,362.0,319.0
15:59:03,-678.0,362.0,319.0
15:59:03,-678.0,362.0,319.0
15:59:03,-668.0,363.0,318.0
15:59:03,-668.0,363.0,318.0
15:59:03,-668.0,363.0,318.0
15:59:03,-668.0,363.0,318.0
15:59:03,-691.0,360.0,317.0
15:59:03,-691.0,360.0,317.0
15:59:03,-691.0,360.0,317.0
15:59:03,-691.0,360.0,317.0
15:59:03,-669.0,360.0,315.0
15:59:03,-669.0,360.0,315.0
15:59:03,-669.0,360.0,315.0
15:59:03,-669.0,360.0,315.0
15:59:03,-663.0,360.0,314.0
15:59:03,-663.0,360.0,314.0
15:59:03,-663.0,360.0,314.0
15:59:03,-663.0,360.0,314.0
15:59:03,-661.0,360.0,313.0
15:59:03,-661.0,360.0,313.0
15:59:03,-661.0,360.0,313.0
15:59:03,-661.0,360.0,313.0
15:59:03,-575.0,358.0,312.0
15:59:03,-575.0,358.0,312.0
15:59:03,-575.0,358.0,312.0
15:59:03,-575.0,358.0,312.0
15:59:03,-617.0,358.0,312.0
15:59:03,-617.0,358.0,312.0
15:59:03,-617.0,358.0,312.0
15:59:03,-617.0,358.0,312.0
15:59:03,-624.0,357.0,310.0
15:59:03,-624.0,357.0,310.0
15:59:03,-624.0,357.0,310.0
15:59:03,-624.0,357.0,310.0
15:59:03,-705.0,357.0,309.0
15:59:03,-705.0,357.0,309.0
15:59:03,-705.0,357.0,309.0
15:59:03,-705.0,357.0,309.0
15:59:03,-699.0,358.0,310.0
15:59:03,-699.0,358.0,310.0
15:59:03,-699.0,358.0,310.0
15:59:03,-699.0,358.0,310.0
15:59:03,-611.0,357.0,310.0
15:59:03,-611.0,357.0,310.0
15:59:03,-611.0,357.0,310.0
15:59:03,-611.0,357.0,310.0
15:59:03,399.0,357.0,310.0
15:59:03,399.0,357.0,310.0
15:59:03,399.0,357.0,310.0
15:59:03,399.0,357.0,310.0
15:59:03,-323.0,357.0,309.0
15:59:03,-323.0,357.0,309.0
15:59:03,-323.0,357.0,309.0
15:59:03,-323.0,357.0,309.0
15:59:03,-682.0,357.0,310.0
15:59:03,-682.0,357.0,310.0
15:59:03,-682.0,357.0,310.0
15:59:03,-682.0,357.0,310.0
15:59:03,-698.0,357.0,309.0
15:59:03,-698.0,357.0,309.0
15:59:03,-698.0,357.0,309.0
15:59:03,-698.0,357.0,309.0
15:59:03,-724.0,356.0,310.0
15:59:03,-724.0,356.0,310.0
15:59:03,-724.0,356.0,310.0
15:59:03,-724.0,356.0,310.0
15:59:03,-667.0,357.0,310.0
15:59:03,-667.0,357.0,310.0
15:59:04,-667.0,357.0,310.0
15:59:04,-667.0,357.0,310.0
15:59:04,-694.0,356.0,309.0
15:59:04,-694.0,356.0,309.0
15:59:04,-694.0,356.0,309.0
15:59:04,-694.0,356.0,309.0
15:59:04,-626.0,357.0,308.0
15:59:04,-626.0,357.0,308.0
15:59:04,-626.0,357.0,308.0
15:59:04,-626.0,357.0,308.0
15:59:04,-611.0,357.0,308.0
15:59:04,-611.0,357.0,308.0
15:59:04,-611.0,357.0,308.0
15:59:04,-611.0,357.0,308.0
15:59:04,-524.0,357.0,310.0
15:59:04,-524.0,357.0,310.0
15:59:04,-524.0,357.0,310.0
15:59:04,-524.0,357.0,310.0
15:59:04,-386.0,356.0,309.0
15:59:04,-386.0,356.0,309.0
15:59:04,-386.0,356.0,309.0
15:59:04,-386.0,356.0,309.0
15:59:04,-349.0,356.0,309.0
15:59:04,-349.0,356.0,309.0
15:59:04,-349.0,356.0,309.0
15:59:04,-349.0,356.0,309.0
15:59:04,-371.0,357.0,309.0
15:59:04,-371.0,357.0,309.0
15:59:04,-371.0,357.0,309.0
15:59:04,-371.0,357.0,309.0
15:59:04,-505.0,357.0,307.0
15:59:04,-505.0,357.0,307.0
15:59:04,-505.0,357.0,307.0
15:59:04,-505.0,357.0,307.0
15:59:04,-606.0,356.0,308.0
15:59:04,-606.0,356.0,308.0
15:59:04,-606.0,356.0,308.0
15:59:04,-606.0,356.0,308.0
15:59:04,-660.0,356.0,307.0
15:59:04,-660.0,356.0,307.0
15:59:04,-660.0,356.0,307.0
15:59:04,-660.0,356.0,307.0
15:59:04,-661.0,357.0,309.0
15:59:04,-661.0,357.0,309.0
15:59:04,-661.0,357.0,309.0
15:59:04,-661.0,357.0,309.0
15:59:04,-659.0,358.0,310.0
15:59:04,-659.0,358.0,310.0
15:59:04,-659.0,358.0,310.0
15:59:04,-659.0,358.0,310.0
15:59:04,-653.0,357.0,309.0
15:59:04,-653.0,357.0,309.0
15:59:04,-653.0,357.0,309.0
15:59:04,-653.0,357.0,309.0
15:59:04,-651.0,357.0,309.0
15:59:04,-651.0,357.0,309.0
15:59:04,-651.0,357.0,309.0
15:59:04,-651.0,357.0,309.0
15:59:04,-667.0,358.0,309.0
15:59:04,-667.0,358.0,309.0
15:59:04,-667.0,358.0,309.0
15:59:04,-667.0,358.0,309.0
15:59:04,-620.0,357.0,310.0
15:59:04,-620.0,357.0,310.0
15:59:04,-620.0,357.0,310.0
15:59:04,-620.0,357.0,310.0
15:59:04,-620.0,357.0,308.0
15:59:04,-620.0,357.0,308.0
15:59:04,-620.0,357.0,308.0
15:59:04,-620.0,357.0,308.0
15:59:04,-619.0,357.0,307.0
15:59:04,-619.0,357.0,307.0
15:59:04,-619.0,357.0,307.0
15:59:04,-619.0,357.0,307.0
15:59:04,-587.0,357.0,310.0
15:59:04,-587.0,357.0,310.0
15:59:04,-587.0,357.0,310.0
15:59:04,-587.0,357.0,310.0
15:59:04,-610.0,357.0,309.0
15:59:04,-610.0,357.0,309.0
15:59:04,-610.0,357.0,309.0
15:59:04,-610.0,357.0,309.0
15:59:04,-604.0,357.0,309.0
15:59:04,-604.0,357.0,309.0
15:59:04,-604.0,357.0,309.0
15:59:04,-604.0,357.0,309.0
15:59:04,-602.0,357.0,309.0
15:59:04,-602.0,357.0,309.0
15:59:04,-602.0,357.0,309.0
15:59:04,-602.0,357.0,309.0
15:59:04,-564.0,357.0,309.0
15:59:04,-564.0,357.0,309.0
15:59:04,-564.0,357.0,309.0
15:59:04,-564.0,357.0,309.0
15:59:04,-637.0,357.0,310.0
15:59:04,-637.0,357.0,310.0
15:59:04,-637.0,357.0,310.0
15:59:04,-637.0,357.0,310.0
15:59:04,-567.0,358.0,311.0
15:59:04,-567.0,358.0,311.0
15:59:04,-567.0,358.0,311.0
15:59:04,-567.0,358.0,311.0
15:59:04,-601.0,357.0,310.0
15:59:04,-601.0,357.0,310.0
15:59:04,-601.0,357.0,310.0
15:59:04,-601.0,357.0,310.0
15:59:04,-552.0,358.0,310.0
15:59:04,-552.0,358.0,310.0
15:59:04,-552.0,358.0,310.0
15:59:04,-552.0,358.0,310.0
15:59:04,-600.0,358.0,310.0
15:59:04,-600.0,358.0,310.0
15:59:04,-600.0,358.0,310.0
15:59:04,-600.0,358.0,310.0
15:59:04,-535.0,357.0,309.0
15:59:04,-535.0,357.0,309.0
15:59:04,-535.0,357.0,309.0
15:59:04,-535.0,357.0,309.0
15:59:04,-529.0,357.0,308.0
15:59:04,-529.0,357.0,308.0
15:59:04,-529.0,357.0,308.0
15:59:04,-529.0,357.0,308.0
15:59:04,-513.0,358.0,309.0
15:59:04,-513.0,358.0,309.0
15:59:04,-513.0,358.0,309.0
15:59:04,-513.0,358.0,309.0
15:59:04,-580.0,358.0,309.0
15:59:04,-580.0,358.0,309.0
15:59:04,-580.0,358.0,309.0
15:59:04,-580.0,358.0,309.0
15:59:04,-605.0,358.0,310.0
15:59:04,-605.0,358.0,310.0
15:59:04,-605.0,358.0,310.0
15:59:04,-605.0,358.0,310.0
15:59:04,-588.0,358.0,308.0
15:59:04,-588.0,358.0,308.0
15:59:04,-588.0,358.0,308.0
15:59:04,-588.0,358.0,308.0
15:59:04,346.0,357.0,308.0
15:59:04,346.0,357.0,308.0
15:59:04,346.0,357.0,308.0
15:59:04,346.0,357.0,308.0
15:59:04,-104.0,357.0,308.0
15:59:04,-104.0,357.0,308.0
15:59:04,-104.0,357.0,308.0
15:59:04,-104.0,357.0,308.0
15:59:04,-608.0,358.0,309.0
15:59:04,-608.0,358.0,309.0
15:59:04,-608.0,358.0,309.0
15:59:04,-608.0,358.0,309.0
15:59:04,-615.0,357.0,310.0
15:59:04,-615.0,357.0,310.0
15:59:04,-615.0,357.0,310.0
15:59:04,-615.0,357.0,310.0
15:59:04,-631.0,357.0,308.0
15:59:04,-631.0,357.0,308.0
15:59:04,-631.0,357.0,308.0
15:59:04,-631.0,357.0,308.0
15:59:04,-579.0,357.0,310.0
15:59:04,-579.0,357.0,310.0
15:59:04,-579.0,357.0,310.0
15:59:04,-579.0,357.0,310.0
15:59:04,-574.0,359.0,310.0
15:59:04,-574.0,359.0,310.0
15:59:04,-574.0,359.0,310.0
15:59:04,-574.0,359.0,310.0
15:59:04,-531.0,358.0,309.0
15:59:04,-531.0,358.0,309.0
15:59:04,-531.0,358.0,309.0
15:59:04,-531.0,358.0,309.0
15:59:04,-489.0,359.0,309.0
15:59:04,-489.0,359.0,309.0
15:59:04,-489.0,359.0,309.0
15:59:04,-489.0,359.0,309.0
15:59:04,-437.0,358.0,309.0
15:59:04,-437.0,358.0,309.0
15:59:04,-437.0,358.0,309.0
15:59:04,-437.0,358.0,309.0
15:59:04,-333.0,359.0,309.0
15:59:04,-333.0,359.0,309.0
15:59:04,-333.0,359.0,309.0
15:59:04,-333.0,359.0,309.0
15:59:04,-312.0,359.0,309.0
15:59:04,-312.0,359.0,309.0
15:59:04,-312.0,359.0,309.0
15:59:04,-312.0,359.0,309.0
15:59:04,-281.0,358.0,309.0
15:59:04,-281.0,358.0,309.0
15:59:04,-281.0,358.0,309.0
15:59:04,-281.0,358.0,309.0
15:59:04,-366.0,356.0,309.0
15:59:04,-366.0,356.0,309.0
15:59:04,-366.0,356.0,309.0
15:59:04,-366.0,356.0,309.0
15:59:04,-575.0,357.0,310.0
15:59:04,-575.0,357.0,310.0
15:59:04,-575.0,357.0,310.0
15:59:04,-575.0,357.0,310.0
15:59:04,-598.0,358.0,308.0
15:59:04,-598.0,358.0,308.0
15:59:04,-598.0,358.0,308.0
15:59:05,-598.0,358.0,308.0
15:59:05,-618.0,357.0,310.0
15:59:05,-618.0,357.0,310.0
15:59:05,-618.0,357.0,310.0
15:59:05,-618.0,357.0,310.0
15:59:05,-596.0,357.0,308.0
15:59:05,-596.0,357.0,308.0
15:59:05,-596.0,357.0,308.0
15:59:05,-596.0,357.0,308.0
15:59:05,-546.0,358.0,308.0
15:59:05,-546.0,358.0,308.0
15:59:05,-546.0,358.0,308.0
15:59:05,-546.0,358.0,308.0
15:59:05,-548.0,357.0,308.0
15:59:05,-548.0,357.0,308.0
15:59:05,-548.0,357.0,308.0
15:59:05,-548.0,357.0,308.0
15:59:05,-544.0,358.0,308.0
15:59:05,-544.0,358.0,308.0
15:59:05,-544.0,358.0,308.0
15:59:05,-544.0,358.0,308.0
15:59:05,-516.0,358.0,308.0
15:59:05,-516.0,358.0,308.0
15:59:05,-516.0,358.0,308.0
15:59:05,-516.0,358.0,308.0
15:59:05,-516.0,358.0,308.0
15:59:05,-516.0,358.0,308.0
15:59:05,-516.0,358.0,308.0
15:59:05,-516.0,358.0,308.0
15:59:05,-554.0,357.0,308.0
15:59:05,-554.0,357.0,308.0
15:59:05,-554.0,357.0,308.0
15:59:05,-554.0,357.0,308.0
15:59:05,-489.0,356.0,308.0
15:59:05,-489.0,356.0,308.0
15:59:05,-489.0,356.0,308.0
15:59:05,-489.0,356.0,308.0
15:59:05,-519.0,358.0,308.0
15:59:05,-519.0,358.0,308.0
15:59:05,-519.0,358.0,308.0
15:59:05,-519.0,358.0,308.0
15:59:05,-486.0,357.0,309.0
15:59:05,-486.0,357.0,309.0
15:59:05,-486.0,357.0,309.0
15:59:05,-486.0,357.0,309.0
15:59:05,-534.0,356.0,308.0
15:59:05,-534.0,356.0,308.0
15:59:05,-534.0,356.0,308.0
15:59:05,-534.0,356.0,308.0
15:59:05,-525.0,357.0,308.0
15:59:05,-525.0,357.0,308.0
15:59:05,-525.0,357.0,308.0
15:59:05,-525.0,357.0,308.0
15:59:05,-504.0,357.0,310.0
15:59:05,-504.0,357.0,310.0
15:59:05,-504.0,357.0,310.0
15:59:05,-504.0,357.0,310.0
15:59:05,-480.0,357.0,307.0
15:59:05,-480.0,357.0,307.0
15:59:05,-480.0,357.0,307.0
15:59:05,-480.0,357.0,307.0
15:59:05,-458.0,358.0,310.0
15:59:05,-458.0,358.0,310.0
15:59:05,-458.0,358.0,310.0
15:59:05,-458.0,358.0,310.0
15:59:05,-510.0,357.0,310.0
15:59:05,-510.0,357.0,310.0
15:59:05,-510.0,357.0,310.0
15:59:05,-510.0,357.0,310.0
15:59:05,-509.0,357.0,309.0
15:59:05,-509.0,357.0,309.0
15:59:05,-509.0,357.0,309.0
15:59:05,-509.0,357.0,309.0
15:59:05,-455.0,357.0,307.0
15:59:05,-455.0,357.0,307.0
15:59:05,-455.0,357.0,307.0
15:59:05,-455.0,357.0,307.0
15:59:05,-386.0,356.0,308.0
15:59:05,-386.0,356.0,308.0
15:59:05,-386.0,356.0,308.0
15:59:05,-386.0,356.0,308.0
15:59:05,-399.0,358.0,308.0
15:59:05,-399.0,358.0,308.0
15:59:05,-399.0,358.0,308.0
15:59:05,-399.0,358.0,308.0
15:59:05,-431.0,356.0,308.0
15:59:05,-431.0,356.0,308.0
15:59:05,-431.0,356.0,308.0
15:59:05,-431.0,356.0,308.0
15:59:05,-517.0,357.0,309.0
15:59:05,-517.0,357.0,309.0
15:59:05,-517.0,357.0,309.0
15:59:05,-517.0,357.0,309.0
15:59:05,-500.0,356.0,309.0
15:59:05,-500.0,356.0,309.0
15:59:05,-500.0,356.0,309.0
15:59:05,-500.0,356.0,309.0
15:59:05,-363.0,357.0,308.0
15:59:05,-363.0,357.0,308.0
15:59:05,-363.0,357.0,308.0
15:59:05,-363.0,357.0,308.0
15:59:05,542.0,357.0,308.0
15:59:05,542.0,357.0,308.0
15:59:05,542.0,357.0,308.0
15:59:05,542.0,357.0,308.0
15:59:05,-188.0,357.0,309.0
15:59:05,-188.0,357.0,309.0
15:59:05,-188.0,357.0,309.0
15:59:05,-188.0,357.0,309.0
15:59:05,-474.0,357.0,308.0
15:59:05,-474.0,357.0,308.0
15:59:05,-474.0,357.0,308.0
15:59:05,-474.0,357.0,308.0
15:59:05,-517.0,356.0,308.0
15:59:05,-517.0,356.0,308.0
15:59:05,-517.0,356.0,308.0
15:59:05,-517.0,356.0,308.0
15:59:05,-501.0,358.0,308.0
15:59:05,-501.0,358.0,308.0
15:59:05,-501.0,358.0,308.0
15:59:05,-501.0,358.0,308.0
15:59:05,-463.0,356.0,308.0
15:59:05,-463.0,356.0,308.0
15:59:05,-463.0,356.0,308.0
15:59:05,-463.0,356.0,308.0
15:59:05,-438.0,357.0,308.0
15:59:05,-438.0,357.0,308.0
15:59:05,-438.0,357.0,308.0
15:59:05,-438.0,357.0,308.0
15:59:05,-423.0,357.0,308.0
15:59:05,-423.0,357.0,308.0
15:59:05,-423.0,357.0,308.0
15:59:05,-423.0,357.0,308.0
15:59:05,-373.0,357.0,308.0
15:59:05,-373.0,357.0,308.0
15:59:05,-373.0,357.0,308.0
15:59:05,-373.0,357.0,308.0
15:59:05,-286.0,356.0,308.0
15:59:05,-286.0,356.0,308.0
15:59:05,-286.0,356.0,308.0
15:59:05,-286.0,356.0,308.0
15:59:05,-210.0,357.0,308.0
15:59:05,-210.0,357.0,308.0
15:59:05,-210.0,357.0,308.0
15:59:05,-210.0,357.0,308.0
15:59:05,-205.0,357.0,308.0
15:59:05,-205.0,357.0,308.0
15:59:05,-205.0,357.0,308.0
15:59:05,-205.0,357.0,308.0
15:59:05,-173.0,357.0,309.0
15:59:05,-173.0,357.0,309.0
15:59:05,-173.0,357.0,309.0
15:59:05,-173.0,357.0,309.0
15:59:05,-313.0,356.0,308.0
15:59:05,-313.0,356.0,308.0
15:59:05,-313.0,356.0,308.0
15:59:05,-313.0,356.0,308.0
15:59:05,-425.0,357.0,308.0
15:59:05,-425.0,357.0,308.0
15:59:05,-425.0,357.0,308.0
15:59:05,-425.0,357.0,308.0
15:59:05,-504.0,358.0,308.0
15:59:05,-504.0,358.0,308.0
15:59:05,-504.0,358.0,308.0
15:59:05,-504.0,358.0,308.0
15:59:05,-468.0,356.0,308.0
15:59:05,-468.0,356.0,308.0
15:59:05,-468.0,356.0,308.0
15:59:05,-468.0,356.0,308.0
15:59:05,-487.0,358.0,308.0
15:59:05,-487.0,358.0,308.0
15:59:05,-487.0,358.0,308.0
15:59:05,-487.0,358.0,308.0
15:59:05,-468.0,358.0,309.0
15:59:05,-468.0,358.0,309.0
15:59:05,-468.0,358.0,309.0
15:59:05,-468.0,358.0,309.0
15:59:05,-483.0,358.0,309.0
15:59:05,-483.0,358.0,309.0
15:59:05,-483.0,358.0,309.0
15:59:05,-483.0,358.0,309.0
15:59:05,-474.0,359.0,310.0
15:59:05,-474.0,359.0,310.0
15:59:05,-474.0,359.0,310.0
15:59:05,-474.0,359.0,310.0
15:59:05,-421.0,358.0,308.0
15:59:05,-421.0,358.0,308.0
15:59:05,-421.0,358.0,308.0
15:59:05,-421.0,358.0,308.0
15:59:05,-450.0,358.0,309.0
15:59:05,-450.0,358.0,309.0
15:59:05,-450.0,358.0,309.0
15:59:05,-450.0,358.0,309.0
15:59:05,-422.0,358.0,310.0
15:59:05,-422.0,358.0,310.0
15:59:05,-422.0,358.0,310.0
15:59:05,-422.0,358.0,310.0
15:59:05,-429.0,357.0,309.0
15:59:05,-429.0,357.0,309.0
15:59:05,-429.0,357.0,309.0
15:59:05,-429.0,357.0,309.0
15:59:06,-433.0,359.0,309.0
15:59:06,-433.0,359.0,309.0
15:59:06,-433.0,359.0,309.0
15:59:06,-433.0,359.0,309.0
15:59:06,-401.0,357.0,309.0
15:59:06,-401.0,357.0,309.0
15:59:06,-401.0,357.0,309.0
15:59:06,-401.0,357.0,309.0
15:59:06,-457.0,357.0,309.0
15:59:06,-457.0,357.0,309.0
15:59:06,-457.0,357.0,309.0
15:59:06,-457.0,357.0,309.0
15:59:06,-406.0,358.0,309.0
15:59:06,-406.0,358.0,309.0
15:59:06,-406.0,358.0,309.0
15:59:06,-406.0,358.0,309.0
15:59:06,-419.0,357.0,307.0
15:59:06,-419.0,357.0,307.0
15:59:06,-419.0,357.0,307.0
15:59:06,-419.0,357.0,307.0
15:59:06,-410.0,359.0,307.0
15:59:06,-410.0,359.0,307.0
15:59:06,-410.0,359.0,307.0
15:59:06,-410.0,359.0,307.0
15:59:06,-420.0,356.0,308.0
15:59:06,-420.0,356.0,308.0
15:59:06,-420.0,356.0,308.0
15:59:06,-420.0,356.0,308.0
15:59:06,-424.0,357.0,308.0
15:59:06,-424.0,357.0,308.0
15:59:06,-424.0,357.0,308.0
15:59:06,-424.0,357.0,308.0
15:59:06,-392.0,357.0,308.0
15:59:06,-392.0,357.0,308.0
15:59:06,-392.0,357.0,308.0
15:59:06,-392.0,357.0,308.0
15:59:06,-371.0,358.0,308.0
15:59:06,-371.0,358.0,308.0
15:59:06,-371.0,358.0,308.0
15:59:06,-371.0,358.0,308.0
15:59:06,-371.0,356.0,308.0
15:59:06,-371.0,356.0,308.0
15:59:06,-371.0,356.0,308.0
15:59:06,-371.0,356.0,308.0
15:59:06,-366.0,357.0,308.0
15:59:06,-366.0,357.0,308.0
15:59:06,-366.0,357.0,308.0
15:59:06,-366.0,357.0,308.0
15:59:06,-303.0,356.0,309.0
15:59:06,-303.0,356.0,309.0
15:59:06,-303.0,356.0,309.0
15:59:06,-303.0,356.0,309.0
15:59:06,-335.0,356.0,309.0
15:59:06,-335.0,356.0,309.0
15:59:06,-335.0,356.0,309.0
15:59:06,-335.0,356.0,309.0
15:59:06,-381.0,356.0,310.0
15:59:06,-381.0,356.0,310.0
15:59:06,-381.0,356.0,310.0
15:59:06,-381.0,356.0,310.0
15:59:06,-420.0,356.0,310.0
15:59:06,-420.0,356.0,310.0
15:59:06,-420.0,356.0,310.0
15:59:06,-420.0,356.0,310.0
15:59:06,-438.0,357.0,309.0
15:59:06,-438.0,357.0,309.0
15:59:06,-438.0,357.0,309.0
15:59:06,-438.0,357.0,309.0
15:59:06,7.0,356.0,309.0
15:59:06,7.0,356.0,309.0
15:59:06,7.0,356.0,309.0
15:59:06,7.0,356.0,309.0
15:59:06,517.0,356.0,309.0
15:59:06,517.0,356.0,309.0
15:59:06,517.0,356.0,309.0
15:59:06,517.0,356.0,309.0
15:59:06,-319.0,356.0,309.0
15:59:06,-319.0,356.0,309.0
15:59:06,-319.0,356.0,309.0
15:59:06,-319.0,356.0,309.0
15:59:06,-386.0,358.0,309.0
15:59:06,-386.0,358.0,309.0
15:59:06,-386.0,358.0,309.0
15:59:06,-386.0,358.0,309.0
15:59:06,-433.0,357.0,310.0
15:59:06,-433.0,357.0,310.0
15:59:06,-433.0,357.0,310.0
15:59:06,-433.0,357.0,310.0
15:59:06,-401.0,359.0,310.0
15:59:06,-401.0,359.0,310.0
15:59:06,-401.0,359.0,310.0
15:59:06,-401.0,359.0,310.0
15:59:06,-402.0,357.0,310.0
15:59:06,-402.0,357.0,310.0
15:59:06,-402.0,357.0,310.0
15:59:06,-402.0,357.0,310.0
15:59:06,-377.0,358.0,309.0
15:59:06,-377.0,358.0,309.0
15:59:06,-377.0,358.0,309.0
15:59:06,-377.0,358.0,309.0
15:59:06,-340.0,357.0,309.0
15:59:06,-340.0,357.0,309.0
15:59:06,-340.0,357.0,309.0
15:59:06,-340.0,357.0,309.0
15:59:06,-267.0,358.0,308.0
15:59:06,-267.0,358.0,308.0
15:59:06,-267.0,358.0,308.0
15:59:06,-267.0,358.0,308.0
15:59:06,-216.0,358.0,310.0
15:59:06,-216.0,358.0,310.0
15:59:06,-216.0,358.0,310.0
15:59:06,-216.0,358.0,310.0
15:59:06,-129.0,357.0,309.0
15:59:06,-129.0,357.0,309.0
15:59:06,-129.0,357.0,309.0
15:59:06,-129.0,357.0,309.0
15:59:06,-97.0,357.0,310.0
15:59:06,-97.0,357.0,310.0
15:59:06,-97.0,357.0,310.0
15:59:06,-97.0,357.0,310.0
15:59:06,-202.0,357.0,309.0
15:59:06,-202.0,357.0,309.0
15:59:06,-202.0,357.0,309.0
15:59:06,-202.0,357.0,309.0
15:59:06,-293.0,357.0,309.0
15:59:06,-293.0,357.0,309.0
15:59:06,-293.0,357.0,309.0
15:59:06,-293.0,357.0,309.0
15:59:06,-339.0,357.0,309.0
15:59:06,-339.0,357.0,309.0
15:59:06,-339.0,357.0,309.0
15:59:06,-339.0,357.0,309.0
15:59:06,-387.0,357.0,310.0
15:59:06,-387.0,357.0,310.0
15:59:06,-387.0,357.0,310.0
15:59:06,-387.0,357.0,310.0
15:59:06,-356.0,357.0,309.0
15:59:06,-356.0,357.0,309.0
15:59:06,-356.0,357.0,309.0
15:59:06,-356.0,357.0,309.0
15:59:06,-356.0,357.0,309.0
15:59:06,-356.0,357.0,309.0
15:59:06,-356.0,357.0,309.0
15:59:06,-356.0,357.0,309.0
15:59:06,-391.0,357.0,309.0
15:59:06,-391.0,357.0,309.0
15:59:06,-391.0,357.0,309.0
15:59:06,-391.0,357.0,309.0
15:59:06,-373.0,358.0,309.0
15:59:06,-373.0,358.0,309.0
15:59:06,-373.0,358.0,309.0
15:59:06,-373.0,358.0,309.0
15:59:06,-358.0,358.0,309.0
15:59:06,-358.0,358.0,309.0
15:59:06,-358.0,358.0,309.0
15:59:06,-358.0,358.0,309.0
15:59:06,-366.0,356.0,310.0
15:59:06,-366.0,356.0,310.0
15:59:06,-366.0,356.0,310.0
15:59:06,-366.0,356.0,310.0
15:59:06,-325.0,357.0,309.0
15:59:06,-325.0,357.0,309.0
15:59:06,-325.0,357.0,309.0
15:59:06,-325.0,357.0,309.0
15:59:06,-321.0,357.0,310.0
15:59:06,-321.0,357.0,310.0
15:59:06,-321.0,357.0,310.0
15:59:06,-321.0,357.0,310.0
15:59:06,-318.0,358.0,309.0
15:59:06,-318.0,358.0,309.0
15:59:06,-318.0,358.0,309.0
15:59:06,-318.0,358.0,309.0
15:59:06,-340.0,357.0,309.0
15:59:06,-340.0,357.0,309.0
15:59:06,-340.0,357.0,309.0
15:59:06,-340.0,357.0,309.0
15:59:06,-344.0,358.0,309.0
15:59:06,-344.0,358.0,309.0
15:59:06,-344.0,358.0,309.0
15:59:06,-344.0,358.0,309.0
15:59:06,-311.0,359.0,308.0
15:59:06,-311.0,359.0,308.0
15:59:06,-311.0,359.0,308.0
15:59:06,-311.0,359.0,308.0
15:59:06,-350.0,357.0,309.0
15:59:06,-350.0,357.0,309.0
15:59:06,-350.0,357.0,309.0
15:59:06,-350.0,357.0,309.0
15:59:06,-312.0,359.0,308.0
15:59:06,-312.0,359.0,308.0
15:59:06,-312.0,359.0,308.0
15:59:06,-312.0,359.0,308.0
15:59:06,-354.0,357.0,310.0
15:59:06,-354.0,357.0,310.0
15:59:06,-354.0,357.0,310.0
15:59:06,-354.0,357.0,310.0
15:59:06,-341.0,359.0,311.0
15:59:06,-341.0,359.0,311.0
15:59:06,-341.0,359.0,311.0
15:59:06,-341.0,359.0,311.0
15:59:06,-307.0,359.0,309.0
15:59:07,-307.0,359.0,309.0
15:59:07,-307.0,359.0,309.0
15:59:07,-307.0,359.0,309.0
15:59:07,-333.0,357.0,310.0
15:59:07,-333.0,357.0,310.0
15:59:07,-333.0,357.0,310.0
15:59:07,-333.0,357.0,310.0
15:59:07,-310.0,357.0,308.0
15:59:07,-310.0,357.0,308.0
15:59:07,-310.0,357.0,308.0
15:59:07,-310.0,357.0,308.0
15:59:07,-285.0,358.0,308.0
15:59:07,-285.0,358.0,308.0
15:59:07,-285.0,358.0,308.0
15:59:07,-285.0,358.0,308.0
15:59:07,-300.0,358.0,309.0
15:59:07,-300.0,358.0,309.0
15:59:07,-300.0,358.0,309.0
15:59:07,-300.0,358.0,309.0
15:59:07,-274.0,357.0,308.0
15:59:07,-274.0,357.0,308.0
15:59:07,-274.0,357.0,308.0
15:59:07,-274.0,357.0,308.0
15:59:07,-190.0,357.0,309.0
15:59:07,-190.0,357.0,309.0
15:59:07,-190.0,357.0,309.0
15:59:07,-190.0,357.0,309.0
15:59:07,-265.0,358.0,309.0
15:59:07,-265.0,358.0,309.0
15:59:07,-265.0,358.0,309.0
15:59:07,-265.0,358.0,309.0
15:59:07,-345.0,357.0,308.0
15:59:07,-345.0,357.0,308.0
15:59:07,-345.0,357.0,308.0
15:59:07,-345.0,357.0,308.0
15:59:07,-325.0,357.0,309.0
15:59:07,-325.0,357.0,309.0
15:59:07,-325.0,357.0,309.0
15:59:07,-325.0,357.0,309.0
15:59:07,-303.0,357.0,309.0
15:59:07,-303.0,357.0,309.0
15:59:07,-303.0,357.0,309.0
15:59:07,-303.0,357.0,309.0
15:59:07,438.0,358.0,308.0
15:59:07,438.0,358.0,308.0
15:59:07,438.0,358.0,308.0
15:59:07,438.0,358.0,308.0
15:59:07,369.0,357.0,310.0
15:59:07,369.0,357.0,310.0
15:59:07,369.0,357.0,310.0
15:59:07,369.0,357.0,310.0
15:59:07,-306.0,358.0,309.0
15:59:07,-306.0,358.0,309.0
15:59:07,-306.0,358.0,309.0
15:59:07,-306.0,358.0,309.0
15:59:07,-344.0,357.0,310.0
15:59:07,-344.0,357.0,310.0
15:59:07,-344.0,357.0,310.0
15:59:07,-344.0,357.0,310.0
15:59:07,-321.0,357.0,310.0
15:59:07,-321.0,357.0,310.0
15:59:07,-321.0,357.0,310.0
15:59:07,-321.0,357.0,310.0
15:59:07,-345.0,358.0,308.0
15:59:07,-345.0,358.0,308.0
15:59:07,-345.0,358.0,308.0
15:59:07,-345.0,358.0,308.0
15:59:07,-325.0,358.0,310.0
15:59:07,-325.0,358.0,310.0
15:59:07,-325.0,358.0,310.0
15:59:07,-325.0,358.0,310.0
15:59:07,-293.0,357.0,309.0
15:59:07,-293.0,357.0,309.0
15:59:07,-293.0,357.0,309.0
15:59:07,-293.0,357.0,309.0
15:59:07,-178.0,356.0,309.0
15:59:07,-178.0,356.0,309.0
15:59:07,-178.0,356.0,309.0
15:59:07,-178.0,356.0,309.0
15:59:07,-254.0,357.0,309.0
15:59:07,-254.0,357.0,309.0
15:59:07,-254.0,357.0,309.0
15:59:07,-254.0,357.0,309.0
15:59:07,-134.0,357.0,308.0
15:59:07,-134.0,357.0,308.0
15:59:07,-134.0,357.0,308.0
15:59:07,-134.0,357.0,308.0
15:59:07,-84.0,356.0,308.0
15:59:07,-84.0,356.0,308.0
15:59:07,-84.0,356.0,308.0
15:59:07,-84.0,356.0,308.0
15:59:07,-64.0,357.0,309.0
15:59:07,-64.0,357.0,309.0
15:59:07,-64.0,357.0,309.0
15:59:07,-64.0,357.0,309.0
15:59:07,-160.0,355.0,309.0
15:59:07,-160.0,355.0,309.0
15:59:07,-160.0,355.0,309.0
15:59:07,-160.0,355.0,309.0
15:59:07,-274.0,358.0,309.0
15:59:07,-274.0,358.0,309.0
15:59:07,-274.0,358.0,309.0
15:59:07,-274.0,358.0,309.0
15:59:07,-332.0,356.0,308.0
15:59:07,-332.0,356.0,308.0
15:59:07,-332.0,356.0,308.0
15:59:07,-332.0,356.0,308.0
15:59:07,-362.0,357.0,308.0
15:59:07,-362.0,357.0,308.0
15:59:07,-362.0,357.0,308.0
15:59:07,-362.0,357.0,308.0
15:59:07,-336.0,357.0,308.0
15:59:07,-336.0,357.0,308.0
15:59:07,-336.0,357.0,308.0
15:59:07,-336.0,357.0,308.0
15:59:07,-281.0,357.0,309.0
15:59:07,-281.0,357.0,309.0
15:59:07,-281.0,357.0,309.0
15:59:07,-281.0,357.0,309.0
15:59:07,-347.0,355.0,309.0
15:59:07,-347.0,355.0,309.0
15:59:07,-347.0,355.0,309.0
15:59:07,-347.0,355.0,309.0
15:59:07,-317.0,357.0,309.0
15:59:07,-317.0,357.0,309.0
15:59:07,-317.0,357.0,309.0
15:59:07,-317.0,357.0,309.0
15:59:07,-278.0,357.0,309.0
15:59:07,-278.0,357.0,309.0
15:59:07,-278.0,357.0,309.0
15:59:07,-278.0,357.0,309.0
15:59:07,-225.0,358.0,309.0
15:59:07,-225.0,358.0,309.0
15:59:07,-225.0,358.0,309.0
15:59:07,-225.0,358.0,309.0
15:59:07,-291.0,358.0,310.0
15:59:07,-291.0,358.0,310.0
15:59:07,-291.0,358.0,310.0
15:59:07,-291.0,358.0,310.0
15:59:07,-206.0,357.0,308.0
15:59:07,-206.0,357.0,308.0
15:59:07,-206.0,357.0,308.0
15:59:07,-206.0,357.0,308.0
15:59:07,-204.0,358.0,308.0
15:59:07,-204.0,358.0,308.0
15:59:07,-204.0,358.0,308.0
15:59:07,-204.0,358.0,308.0
15:59:07,-313.0,357.0,308.0
15:59:07,-313.0,357.0,308.0
15:59:07,-313.0,357.0,308.0
15:59:07,-313.0,357.0,308.0
15:59:07,-278.0,356.0,308.0
15:59:07,-278.0,356.0,308.0
15:59:07,-278.0,356.0,308.0
15:59:07,-278.0,356.0,308.0
15:59:07,-252.0,357.0,308.0
15:59:07,-252.0,357.0,308.0
15:59:07,-252.0,357.0,308.0
15:59:07,-252.0,357.0,308.0
15:59:07,-183.0,358.0,309.0
15:59:07,-183.0,358.0,309.0
15:59:07,-183.0,358.0,309.0
15:59:07,-183.0,358.0,309.0
15:59:07,-400.0,357.0,308.0
15:59:07,-400.0,357.0,308.0
15:59:07,-400.0,357.0,308.0
15:59:07,-400.0,357.0,308.0
15:59:07,-173.0,359.0,309.0
15:59:07,-173.0,359.0,309.0
15:59:07,-173.0,359.0,309.0
15:59:07,-173.0,359.0,309.0
15:59:07,-146.0,357.0,308.0
15:59:07,-146.0,357.0,308.0
15:59:07,-146.0,357.0,308.0
15:59:07,-146.0,357.0,308.0
15:59:07,-91.0,358.0,310.0
15:59:07,-91.0,358.0,310.0
15:59:07,-91.0,358.0,310.0
15:59:07,-91.0,358.0,310.0
15:59:07,-16.0,358.0,308.0
15:59:07,-16.0,358.0,308.0
15:59:07,-16.0,358.0,308.0
15:59:07,-16.0,358.0,308.0
15:59:07,36.0,358.0,308.0
15:59:07,36.0,358.0,308.0
15:59:07,36.0,358.0,308.0
15:59:07,36.0,358.0,308.0
15:59:07,-152.0,356.0,308.0
15:59:07,-152.0,356.0,308.0
15:59:07,-152.0,356.0,308.0
15:59:07,-152.0,356.0,308.0
15:59:07,-71.0,358.0,308.0
15:59:07,-71.0,358.0,308.0
15:59:07,-71.0,358.0,308.0
15:59:07,-71.0,358.0,308.0
15:59:07,-183.0,357.0,308.0
15:59:07,-183.0,357.0,308.0
15:59:07,-183.0,357.0,308.0
15:59:07,-183.0,357.0,308.0
15:59:07,-205.0,356.0,308.0
15:59:07,-205.0,356.0,308.0
15:59:08,-205.0,356.0,308.0
15:59:08,-205.0,356.0,308.0
15:59:08,121.0,357.0,309.0
15:59:08,121.0,357.0,309.0
15:59:08,121.0,357.0,309.0
15:59:08,121.0,357.0,309.0
15:59:08,747.0,357.0,309.0
15:59:08,747.0,357.0,309.0
15:59:08,747.0,357.0,309.0
15:59:08,747.0,357.0,309.0
15:59:08,-73.0,357.0,308.0
15:59:08,-73.0,357.0,308.0
15:59:08,-73.0,357.0,308.0
15:59:08,-73.0,357.0,308.0
15:59:08,-72.0,358.0,309.0
15:59:08,-72.0,358.0,309.0
15:59:08,-72.0,358.0,309.0
15:59:08,-72.0,358.0,309.0
15:59:08,-127.0,357.0,309.0
15:59:08,-127.0,357.0,309.0
15:59:08,-127.0,357.0,309.0
15:59:08,-127.0,357.0,309.0
15:59:08,-126.0,358.0,309.0
15:59:08,-126.0,358.0,309.0
15:59:08,-126.0,358.0,309.0
15:59:08,-126.0,358.0,309.0
15:59:08,-102.0,356.0,308.0
15:59:08,-102.0,356.0,308.0
15:59:08,-102.0,356.0,308.0
15:59:08,-102.0,356.0,308.0
15:59:08,-161.0,357.0,309.0
15:59:08,-161.0,357.0,309.0
15:59:08,-161.0,357.0,309.0
15:59:08,-161.0,357.0,309.0
15:59:08,-133.0,357.0,310.0
15:59:08,-133.0,357.0,310.0
15:59:08,-133.0,357.0,310.0
15:59:08,-133.0,357.0,310.0
15:59:08,-27.0,358.0,310.0
15:59:08,-27.0,358.0,310.0
15:59:08,-27.0,358.0,310.0
15:59:08,-27.0,358.0,310.0
15:59:08,156.0,356.0,309.0
15:59:08,156.0,356.0,309.0
15:59:08,156.0,356.0,309.0
15:59:08,156.0,356.0,309.0
15:59:08,160.0,358.0,309.0
15:59:08,160.0,358.0,309.0
15:59:08,160.0,358.0,309.0
15:59:08,160.0,358.0,309.0
15:59:08,216.0,357.0,310.0
15:59:08,216.0,357.0,310.0
15:59:08,216.0,357.0,310.0
15:59:08,216.0,357.0,310.0
15:59:08,96.0,357.0,309.0
15:59:08,96.0,357.0,309.0
15:59:08,96.0,357.0,309.0
15:59:08,96.0,357.0,309.0
15:59:08,59.0,357.0,309.0
15:59:08,59.0,357.0,309.0
15:59:08,59.0,357.0,309.0
15:59:08,59.0,357.0,309.0
15:59:08,-144.0,357.0,309.0
15:59:08,-144.0,357.0,309.0
15:59:08,-144.0,357.0,309.0
15:59:08,-144.0,357.0,309.0
15:59:08,-147.0,357.0,309.0
15:59:08,-147.0,357.0,309.0
15:59:08,-147.0,357.0,309.0
15:59:08,-147.0,357.0,309.0
15:59:08,-164.0,357.0,310.0
15:59:08,-164.0,357.0,310.0
15:59:08,-164.0,357.0,310.0
15:59:08,-164.0,357.0,310.0
15:59:08,-225.0,357.0,310.0
15:59:08,-225.0,357.0,310.0
15:59:08,-225.0,357.0,310.0
15:59:08,-225.0,357.0,310.0
15:59:08,-194.0,357.0,310.0
15:59:08,-194.0,357.0,310.0
15:59:08,-194.0,357.0,310.0
15:59:08,-194.0,357.0,310.0
15:59:08,-156.0,357.0,309.0
15:59:08,-156.0,357.0,309.0
15:59:08,-156.0,357.0,309.0
15:59:08,-156.0,357.0,309.0
15:59:08,-217.0,358.0,310.0
15:59:08,-217.0,358.0,310.0
15:59:08,-217.0,358.0,310.0
15:59:08,-217.0,358.0,310.0
15:59:08,-94.0,358.0,309.0
15:59:08,-94.0,358.0,309.0
15:59:08,-94.0,358.0,309.0
15:59:08,-94.0,358.0,309.0
15:59:08,-220.0,357.0,310.0
15:59:08,-220.0,357.0,310.0
15:59:08,-220.0,357.0,310.0
15:59:08,-220.0,357.0,310.0
15:59:08,-37.0,358.0,310.0
15:59:08,-37.0,358.0,310.0
15:59:08,-37.0,358.0,310.0
15:59:08,-37.0,358.0,310.0
15:59:08,-138.0,359.0,310.0
15:59:08,-138.0,359.0,310.0
15:59:08,-138.0,359.0,310.0
15:59:08,-138.0,359.0,310.0
15:59:08,-115.0,357.0,310.0
15:59:08,-115.0,357.0,310.0
15:59:08,-115.0,357.0,310.0
15:59:08,-115.0,357.0,310.0
15:59:08,-133.0,357.0,309.0
15:59:08,-133.0,357.0,309.0
15:59:08,-133.0,357.0,309.0
15:59:08,-133.0,357.0,309.0
15:59:08,-188.0,357.0,308.0
15:59:08,-188.0,357.0,308.0
15:59:08,-188.0,357.0,308.0
15:59:08,-188.0,357.0,308.0
15:59:08,-134.0,357.0,309.0
15:59:08,-134.0,357.0,309.0
15:59:08,-134.0,357.0,309.0
15:59:08,-134.0,357.0,309.0
15:59:08,-163.0,358.0,309.0
15:59:08,-163.0,358.0,309.0
15:59:08,-163.0,358.0,309.0
15:59:08,-163.0,358.0,309.0
15:59:08,-94.0,358.0,309.0
15:59:08,-94.0,358.0,309.0
15:59:08,-94.0,358.0,309.0
15:59:08,-94.0,358.0,309.0
15:59:08,-14.0,358.0,309.0
15:59:08,-14.0,358.0,309.0
15:59:08,-14.0,358.0,309.0
15:59:08,-14.0,358.0,309.0
15:59:08,-68.0,357.0,310.0
15:59:08,-68.0,357.0,310.0
15:59:08,-68.0,357.0,310.0
15:59:08,-68.0,357.0,310.0
15:59:08,-55.0,357.0,309.0
15:59:08,-55.0,357.0,309.0
15:59:08,-55.0,357.0,309.0
15:59:08,-55.0,357.0,309.0
15:59:08,4.0,357.0,308.0
15:59:08,4.0,357.0,308.0
15:59:08,4.0,357.0,308.0
15:59:08,4.0,357.0,308.0
15:59:08,148.0,357.0,309.0
15:59:08,148.0,357.0,309.0
15:59:08,148.0,357.0,309.0
15:59:08,148.0,357.0,309.0
15:59:08,-20.0,357.0,309.0
15:59:08,-20.0,357.0,309.0
15:59:08,-20.0,357.0,309.0
15:59:08,-20.0,357.0,309.0
15:59:08,-8.0,358.0,310.0
15:59:08,-8.0,358.0,310.0
15:59:08,-8.0,358.0,310.0
15:59:08,-8.0,358.0,310.0
15:59:08,-135.0,358.0,309.0
15:59:08,-135.0,358.0,309.0
15:59:08,-135.0,358.0,309.0
15:59:08,-135.0,358.0,309.0
15:59:08,43.0,357.0,308.0
15:59:08,43.0,357.0,308.0
15:59:08,43.0,357.0,308.0
15:59:08,43.0,357.0,308.0
15:59:08,854.0,358.0,309.0
15:59:08,854.0,358.0,309.0
15:59:08,854.0,358.0,309.0
15:59:08,854.0,358.0,309.0
15:59:08,468.0,358.0,310.0
15:59:08,468.0,358.0,310.0
15:59:08,468.0,358.0,310.0
15:59:08,468.0,358.0,310.0
15:59:08,-87.0,357.0,310.0
15:59:08,-87.0,357.0,310.0
15:59:08,-87.0,357.0,310.0
15:59:08,-87.0,357.0,310.0
15:59:08,-227.0,358.0,310.0
15:59:08,-227.0,358.0,310.0
15:59:08,-227.0,358.0,310.0
15:59:08,-227.0,358.0,310.0
15:59:08,-129.0,358.0,309.0
15:59:08,-129.0,358.0,309.0
15:59:08,-129.0,358.0,309.0
15:59:08,-129.0,358.0,309.0
15:59:08,-15.0,357.0,309.0
15:59:08,-15.0,357.0,309.0
15:59:08,-15.0,357.0,309.0
15:59:08,-15.0,357.0,309.0
15:59:08,-55.0,357.0,309.0
15:59:08,-55.0,357.0,309.0
15:59:08,-55.0,357.0,309.0
15:59:08,-55.0,357.0,309.0
15:59:08,14.0,357.0,309.0
15:59:08,14.0,357.0,309.0
15:59:08,14.0,357.0,309.0
15:59:08,14.0,357.0,309.0
15:59:08,29.0,357.0,308.0
15:59:08,29.0,357.0,308.0
15:59:08,29.0,357.0,308.0
15:59:09,29.0,357.0,308.0
15:59:09,138.0,356.0,310.0
15:59:09,138.0,356.0,310.0
15:59:09,138.0,356.0,310.0
15:59:09,138.0,356.0,310.0
15:59:09,76.0,357.0,309.0
15:59:09,76.0,357.0,309.0
15:59:09,76.0,357.0,309.0
15:59:09,76.0,357.0,309.0
15:59:09,307.0,356.0,309.0
15:59:09,307.0,356.0,309.0
15:59:09,307.0,356.0,309.0
15:59:09,307.0,356.0,309.0
15:59:09,236.0,356.0,309.0
15:59:09,236.0,356.0,309.0
15:59:09,236.0,356.0,309.0
15:59:09,236.0,356.0,309.0
15:59:09,225.0,357.0,309.0
15:59:09,225.0,357.0,309.0
15:59:09,225.0,357.0,309.0
15:59:09,225.0,357.0,309.0
15:59:09,45.0,357.0,309.0
15:59:09,45.0,357.0,309.0
15:59:09,45.0,357.0,309.0
15:59:09,45.0,357.0,309.0
15:59:09,-126.0,358.0,310.0
15:59:09,-126.0,358.0,310.0
15:59:09,-126.0,358.0,310.0
15:59:09,-126.0,358.0,310.0
15:59:09,-101.0,359.0,310.0
15:59:09,-101.0,359.0,310.0
15:59:09,-101.0,359.0,310.0
15:59:09,-101.0,359.0,310.0
15:59:09,-5.0,358.0,310.0
15:59:09,-5.0,358.0,310.0
15:59:09,-5.0,358.0,310.0
15:59:09,-5.0,358.0,310.0
15:59:09,3.0,358.0,310.0
15:59:09,3.0,358.0,310.0
15:59:09,3.0,358.0,310.0
15:59:09,3.0,358.0,310.0
15:59:09,-101.0,358.0,310.0
15:59:09,-101.0,358.0,310.0
15:59:09,-101.0,358.0,310.0
15:59:09,-101.0,358.0,310.0
15:59:09,-69.0,358.0,309.0
15:59:09,-69.0,358.0,309.0
15:59:09,-69.0,358.0,309.0
15:59:09,-69.0,358.0,309.0
15:59:09,-38.0,357.0,309.0
15:59:09,-38.0,357.0,309.0
15:59:09,-38.0,357.0,309.0
15:59:09,-38.0,357.0,309.0
15:59:09,-57.0,358.0,309.0
15:59:09,-57.0,358.0,309.0
15:59:09,-57.0,358.0,309.0
15:59:09,-57.0,358.0,309.0
15:59:09,-53.0,357.0,310.0
15:59:09,-53.0,357.0,310.0
15:59:09,-53.0,357.0,310.0
15:59:09,-53.0,357.0,310.0
15:59:09,-39.0,358.0,309.0
15:59:09,-39.0,358.0,309.0
15:59:09,-39.0,358.0,309.0
15:59:09,-39.0,358.0,309.0
15:59:09,67.0,359.0,310.0
15:59:09,67.0,359.0,310.0
15:59:09,67.0,359.0,310.0
15:59:09,67.0,359.0,310.0
15:59:09,-71.0,357.0,310.0
15:59:09,-71.0,357.0,310.0
15:59:09,-71.0,357.0,310.0
15:59:09,-71.0,357.0,310.0
15:59:09,-16.0,358.0,310.0
15:59:09,-16.0,358.0,310.0
15:59:09,-16.0,358.0,310.0
15:59:09,-16.0,358.0,310.0
15:59:09,-39.0,357.0,309.0
15:59:09,-39.0,357.0,309.0
15:59:09,-39.0,357.0,309.0
15:59:09,-39.0,357.0,309.0
15:59:09,-22.0,357.0,309.0
15:59:09,-22.0,357.0,309.0
15:59:09,-22.0,357.0,309.0
15:59:09,-22.0,357.0,309.0
15:59:09,-15.0,357.0,309.0
15:59:09,-15.0,357.0,309.0
15:59:09,-15.0,357.0,309.0
15:59:09,-15.0,357.0,309.0
15:59:09,2.0,357.0,310.0
15:59:09,2.0,357.0,310.0
15:59:09,2.0,357.0,310.0
15:59:09,2.0,357.0,310.0
15:59:09,83.0,356.0,309.0
15:59:09,83.0,356.0,309.0
15:59:09,83.0,356.0,309.0
15:59:09,83.0,356.0,309.0
15:59:09,103.0,357.0,310.0
15:59:09,103.0,357.0,310.0
15:59:09,103.0,357.0,310.0
15:59:09,103.0,357.0,310.0
15:59:09,99.0,356.0,309.0
15:59:09,99.0,356.0,309.0
15:59:09,99.0,356.0,309.0
15:59:09,99.0,356.0,309.0
15:59:09,41.0,357.0,309.0
15:59:09,41.0,357.0,309.0
15:59:09,41.0,357.0,309.0
15:59:09,41.0,357.0,309.0
15:59:09,9.0,356.0,309.0
15:59:09,9.0,356.0,309.0
15:59:09,9.0,356.0,309.0
15:59:09,9.0,356.0,309.0
15:59:09,-35.0,358.0,310.0
15:59:09,-35.0,358.0,310.0
15:59:09,-35.0,358.0,310.0
15:59:09,-35.0,358.0,310.0
15:59:09,289.0,357.0,309.0
15:59:09,289.0,357.0,309.0
15:59:09,289.0,357.0,309.0
15:59:09,289.0,357.0,309.0
15:59:09,943.0,357.0,309.0
15:59:09,943.0,357.0,309.0
15:59:09,943.0,357.0,309.0
15:59:09,943.0,357.0,309.0
15:59:09,158.0,357.0,310.0
15:59:09,158.0,357.0,310.0
15:59:09,158.0,357.0,310.0
15:59:09,158.0,357.0,310.0
15:59:09,39.0,357.0,309.0
15:59:09,39.0,357.0,309.0
15:59:09,39.0,357.0,309.0
15:59:09,39.0,357.0,309.0
15:59:09,13.0,357.0,310.0
15:59:09,13.0,357.0,310.0
15:59:09,13.0,357.0,310.0
15:59:09,13.0,357.0,310.0
15:59:09,44.0,357.0,309.0
15:59:09,44.0,357.0,309.0
15:59:09,44.0,357.0,309.0
15:59:09,44.0,357.0,309.0
15:59:09,83.0,356.0,310.0
15:59:09,83.0,356.0,310.0
15:59:09,83.0,356.0,310.0
15:59:09,83.0,356.0,310.0
15:59:09,109.0,358.0,309.0
15:59:09,109.0,358.0,309.0
15:59:09,109.0,358.0,309.0
15:59:09,109.0,358.0,309.0
15:59:09,129.0,357.0,308.0
15:59:09,129.0,357.0,308.0
15:59:09,129.0,357.0,308.0
15:59:09,129.0,357.0,308.0
15:59:09,104.0,357.0,308.0
15:59:09,104.0,357.0,308.0
15:59:09,104.0,357.0,308.0
15:59:09,104.0,357.0,308.0
15:59:09,211.0,356.0,309.0
15:59:09,211.0,356.0,309.0
15:59:09,211.0,356.0,309.0
15:59:09,211.0,356.0,309.0
15:59:09,362.0,356.0,309.0
15:59:09,362.0,356.0,309.0
15:59:09,362.0,356.0,309.0
15:59:09,362.0,356.0,309.0
15:59:09,311.0,357.0,309.0
15:59:09,311.0,357.0,309.0
15:59:09,311.0,357.0,309.0
15:59:09,311.0,357.0,309.0
15:59:09,234.0,357.0,310.0
15:59:09,234.0,357.0,310.0
15:59:09,234.0,357.0,310.0
15:59:09,234.0,357.0,310.0
15:59:09,133.0,357.0,309.0
15:59:09,133.0,357.0,309.0
15:59:09,133.0,357.0,309.0
15:59:09,133.0,357.0,309.0
15:59:09,90.0,357.0,310.0
15:59:09,90.0,357.0,310.0
15:59:09,90.0,357.0,310.0
15:59:09,90.0,357.0,310.0
15:59:09,-85.0,357.0,309.0
15:59:09,-85.0,357.0,309.0
15:59:09,-85.0,357.0,309.0
15:59:09,-85.0,357.0,309.0
15:59:09,-101.0,357.0,309.0
15:59:09,-101.0,357.0,309.0
15:59:09,-101.0,357.0,309.0
15:59:09,-101.0,357.0,309.0
15:59:09,-40.0,358.0,308.0
15:59:09,-40.0,358.0,308.0
15:59:09,-40.0,358.0,308.0
15:59:09,-40.0,358.0,308.0
15:59:09,42.0,358.0,309.0
15:59:09,42.0,358.0,309.0
15:59:09,42.0,358.0,309.0
15:59:09,42.0,358.0,309.0
15:59:09,-35.0,357.0,308.0
15:59:09,-35.0,357.0,308.0
15:59:09,-35.0,357.0,308.0
15:59:10,-35.0,357.0,308.0
15:59:10,-46.0,357.0,309.0
15:59:10,-46.0,357.0,309.0
15:59:10,-46.0,357.0,309.0
15:59:10,-46.0,357.0,309.0
15:59:10,95.0,358.0,309.0
15:59:10,95.0,358.0,309.0
15:59:10,95.0,358.0,309.0
15:59:10,95.0,358.0,309.0
15:59:10,-64.0,357.0,309.0
15:59:10,-64.0,357.0,309.0
15:59:10,-64.0,357.0,309.0
15:59:10,-64.0,357.0,309.0
15:59:10,-68.0,358.0,310.0
15:59:10,-68.0,358.0,310.0
15:59:10,-68.0,358.0,310.0
15:59:10,-68.0,358.0,310.0
15:59:10,-50.0,357.0,309.0
15:59:10,-50.0,357.0,309.0
15:59:10,-50.0,357.0,309.0
15:59:10,-50.0,357.0,309.0
15:59:10,68.0,357.0,308.0
15:59:10,68.0,357.0,308.0
15:59:10,68.0,357.0,308.0
15:59:10,68.0,357.0,308.0
15:59:10,-149.0,357.0,308.0
15:59:10,-149.0,357.0,308.0
15:59:10,-149.0,357.0,308.0
15:59:10,-149.0,357.0,308.0
15:59:10,-165.0,357.0,309.0
15:59:10,-165.0,357.0,309.0
15:59:10,-165.0,357.0,309.0
15:59:10,-165.0,357.0,309.0
15:59:10,-77.0,357.0,308.0
15:59:10,-77.0,357.0,308.0
15:59:10,-77.0,357.0,308.0
15:59:10,-77.0,357.0,308.0
15:59:10,-125.0,357.0,308.0
15:59:10,-125.0,357.0,308.0
15:59:10,-125.0,357.0,308.0
15:59:10,-125.0,357.0,308.0
15:59:10,-128.0,358.0,308.0
15:59:10,-128.0,358.0,308.0
15:59:10,-128.0,358.0,308.0
15:59:10,-128.0,358.0,308.0
15:59:10,-72.0,357.0,309.0
15:59:10,-72.0,357.0,309.0
15:59:10,-72.0,357.0,309.0
15:59:10,-72.0,357.0,309.0
15:59:10,10.0,357.0,308.0
15:59:10,10.0,357.0,308.0
15:59:10,10.0,357.0,308.0
15:59:10,10.0,357.0,308.0
15:59:10,-66.0,357.0,309.0
15:59:10,-66.0,357.0,309.0
15:59:10,-66.0,357.0,309.0
15:59:10,-66.0,357.0,309.0
15:59:10,-233.0,358.0,308.0
15:59:10,-233.0,358.0,308.0
15:59:10,-233.0,358.0,308.0
15:59:10,-233.0,358.0,308.0
15:59:10,-224.0,357.0,309.0
15:59:10,-224.0,357.0,309.0
15:59:10,-224.0,357.0,309.0
15:59:10,-224.0,357.0,309.0
15:59:10,-279.0,357.0,309.0
15:59:10,-279.0,357.0,309.0
15:59:10,-279.0,357.0,309.0
15:59:10,-279.0,357.0,309.0
15:59:10,348.0,357.0,309.0
15:59:10,348.0,357.0,309.0
15:59:10,348.0,357.0,309.0
15:59:10,348.0,357.0,309.0
15:59:10,740.0,356.0,309.0
15:59:10,740.0,356.0,309.0
15:59:10,740.0,356.0,309.0
15:59:10,740.0,356.0,309.0
15:59:10,-198.0,358.0,309.0
15:59:10,-198.0,358.0,309.0
15:59:10,-198.0,358.0,309.0
15:59:10,-198.0,358.0,309.0
15:59:10,-360.0,357.0,309.0
15:59:10,-360.0,357.0,309.0
15:59:10,-360.0,357.0,309.0
15:59:10,-360.0,357.0,309.0
15:59:10,-372.0,356.0,309.0
15:59:10,-372.0,356.0,309.0
15:59:10,-372.0,356.0,309.0
15:59:10,-372.0,356.0,309.0
15:59:10,-246.0,358.0,309.0
15:59:10,-246.0,358.0,309.0
15:59:10,-246.0,358.0,309.0
15:59:10,-246.0,358.0,309.0
15:59:10,-401.0,356.0,309.0
15:59:10,-401.0,356.0,309.0
15:59:10,-401.0,356.0,309.0
15:59:10,-401.0,356.0,309.0
15:59:10,-360.0,357.0,309.0
15:59:10,-360.0,357.0,309.0
15:59:10,-360.0,357.0,309.0
15:59:10,-360.0,357.0,309.0
15:59:10,-309.0,356.0,308.0
15:59:10,-309.0,356.0,308.0
15:59:10,-309.0,356.0,308.0
15:59:10,-309.0,356.0,308.0
15:59:10,-265.0,358.0,308.0
15:59:10,-265.0,358.0,308.0
15:59:10,-265.0,358.0,308.0
15:59:10,-265.0,358.0,308.0
15:59:10,-158.0,359.0,308.0
15:59:10,-158.0,359.0,308.0
15:59:10,-158.0,359.0,308.0
15:59:10,-158.0,359.0,308.0
15:59:10,-102.0,358.0,308.0
15:59:10,-102.0,358.0,308.0
15:59:10,-102.0,358.0,308.0
15:59:10,-102.0,358.0,308.0
15:59:10,-111.0,356.0,310.0
15:59:10,-111.0,356.0,310.0
15:59:10,-111.0,356.0,310.0
15:59:10,-111.0,356.0,310.0
15:59:10,-155.0,358.0,308.0
15:59:10,-155.0,358.0,308.0
15:59:10,-155.0,358.0,308.0
15:59:10,-155.0,358.0,308.0
15:59:10,-383.0,357.0,310.0
15:59:10,-383.0,357.0,310.0
15:59:10,-383.0,357.0,310.0
15:59:10,-383.0,357.0,310.0
15:59:10,-446.0,358.0,308.0
15:59:10,-446.0,358.0,308.0
15:59:10,-446.0,358.0,308.0
15:59:10,-446.0,358.0,308.0
15:59:10,-525.0,358.0,308.0
15:59:10,-525.0,358.0,308.0
15:59:10,-525.0,358.0,308.0
15:59:10,-525.0,358.0,308.0
15:59:10,-558.0,356.0,308.0
15:59:10,-558.0,356.0,308.0
15:59:10,-558.0,356.0,308.0
15:59:10,-558.0,356.0,308.0
15:59:10,-490.0,357.0,309.0
15:59:10,-490.0,357.0,309.0
15:59:10,-490.0,357.0,309.0
15:59:10,-490.0,357.0,309.0
15:59:10,-562.0,358.0,308.0
15:59:10,-562.0,358.0,308.0
15:59:10,-562.0,358.0,308.0
15:59:10,-562.0,358.0,308.0
15:59:10,-554.0,358.0,308.0
15:59:10,-554.0,358.0,308.0
15:59:10,-554.0,358.0,308.0
15:59:10,-554.0,358.0,308.0
15:59:10,-524.0,356.0,308.0
15:59:10,-524.0,356.0,308.0
15:59:10,-524.0,356.0,308.0
15:59:10,-524.0,356.0,308.0
15:59:10,-569.0,358.0,309.0
15:59:10,-569.0,358.0,309.0
15:59:10,-569.0,358.0,309.0
15:59:10,-569.0,358.0,309.0
15:59:10,-547.0,357.0,309.0
15:59:10,-547.0,357.0,309.0
15:59:10,-547.0,357.0,309.0
15:59:10,-547.0,357.0,309.0
15:59:10,-606.0,358.0,308.0
15:59:10,-606.0,358.0,308.0
15:59:10,-606.0,358.0,308.0
15:59:10,-606.0,358.0,308.0
15:59:10,-645.0,356.0,308.0
15:59:10,-645.0,356.0,308.0
15:59:10,-645.0,356.0,308.0
15:59:10,-645.0,356.0,308.0
15:59:10,-601.0,357.0,309.0
15:59:10,-601.0,357.0,309.0
15:59:10,-601.0,357.0,309.0
15:59:10,-601.0,357.0,309.0
15:59:10,-632.0,357.0,309.0
15:59:10,-632.0,357.0,309.0
15:59:10,-632.0,357.0,309.0
15:59:10,-632.0,357.0,309.0
15:59:10,-624.0,358.0,308.0
15:59:10,-624.0,358.0,308.0
15:59:10,-624.0,358.0,308.0
15:59:10,-624.0,358.0,308.0
15:59:10,-646.0,356.0,310.0
15:59:10,-646.0,356.0,310.0
15:59:10,-646.0,356.0,310.0
15:59:10,-646.0,356.0,310.0
15:59:10,-605.0,356.0,309.0
15:59:10,-605.0,356.0,309.0
15:59:10,-605.0,356.0,309.0
15:59:10,-605.0,356.0,309.0
15:59:10,-628.0,356.0,309.0
15:59:10,-628.0,356.0,309.0
15:59:10,-628.0,356.0,309.0
15:59:10,-628.0,356.0,309.0
15:59:10,-610.0,357.0,308.0
15:59:10,-610.0,357.0,308.0
15:59:10,-610.0,357.0,308.0
15:59:10,-610.0,357.0,308.0
15:59:11,-704.0,357.0,310.0
15:59:11,-704.0,357.0,310.0
15:59:11,-704.0,357.0,310.0
15:59:11,-704.0,357.0,310.0
15:59:11,-769.0,357.0,309.0
15:59:11,-769.0,357.0,309.0
15:59:11,-769.0,357.0,309.0
15:59:11,-769.0,357.0,309.0
15:59:11,-758.0,357.0,309.0
15:59:11,-758.0,357.0,309.0
15:59:11,-758.0,357.0,309.0
15:59:11,-758.0,357.0,309.0
15:59:11,213.0,357.0,310.0
15:59:11,213.0,357.0,310.0
15:59:11,213.0,357.0,310.0
15:59:11,213.0,357.0,310.0
15:59:11,-286.0,357.0,310.0
15:59:11,-286.0,357.0,310.0
15:59:11,-286.0,357.0,310.0
15:59:11,-286.0,357.0,310.0
15:59:11,-777.0,356.0,310.0
15:59:11,-777.0,356.0,310.0
15:59:11,-777.0,356.0,310.0
15:59:11,-777.0,356.0,310.0
15:59:11,-849.0,358.0,309.0
15:59:11,-849.0,358.0,309.0
15:59:11,-849.0,358.0,309.0
15:59:11,-849.0,358.0,309.0
15:59:11,-847.0,358.0,310.0
15:59:11,-847.0,358.0,310.0
15:59:11,-847.0,358.0,310.0
15:59:11,-847.0,358.0,310.0
15:59:11,-848.0,358.0,310.0
15:59:11,-848.0,358.0,310.0
15:59:11,-848.0,358.0,310.0
15:59:11,-848.0,358.0,310.0
15:59:11,-804.0,357.0,310.0
15:59:11,-804.0,357.0,310.0
15:59:11,-804.0,357.0,310.0
15:59:11,-804.0,357.0,310.0
15:59:11,-842.0,358.0,308.0
15:59:11,-842.0,358.0,308.0
15:59:11,-842.0,358.0,308.0
15:59:11,-842.0,358.0,308.0
15:59:11,-824.0,357.0,309.0
15:59:11,-824.0,357.0,309.0
15:59:11,-824.0,357.0,309.0
15:59:11,-824.0,357.0,309.0
15:59:11,-718.0,357.0,308.0
15:59:11,-718.0,357.0,308.0
15:59:11,-718.0,357.0,308.0
15:59:11,-718.0,357.0,308.0
15:59:11,-639.0,357.0,310.0
15:59:11,-639.0,357.0,310.0
15:59:11,-639.0,357.0,310.0
15:59:11,-639.0,357.0,310.0
15:59:11,-648.0,357.0,308.0
15:59:11,-648.0,357.0,308.0
15:59:11,-648.0,357.0,308.0
15:59:11,-648.0,357.0,308.0
15:59:11,-681.0,357.0,308.0
15:59:11,-681.0,357.0,308.0
15:59:11,-681.0,357.0,308.0
15:59:11,-681.0,357.0,308.0
15:59:11,-758.0,357.0,309.0
15:59:11,-758.0,357.0,309.0
15:59:11,-758.0,357.0,309.0
15:59:11,-758.0,357.0,309.0
15:59:11,-891.0,357.0,310.0
15:59:11,-891.0,357.0,310.0
15:59:11,-891.0,357.0,310.0
15:59:11,-891.0,357.0,310.0
15:59:11,-971.0,357.0,309.0
15:59:11,-971.0,357.0,309.0
15:59:11,-971.0,357.0,309.0
15:59:11,-971.0,357.0,309.0
15:59:11,-1011.0,357.0,309.0
15:59:11,-1011.0,357.0,309.0
15:59:11,-1011.0,357.0,309.0
15:59:11,-1011.0,357.0,309.0
15:59:11,-1016.0,356.0,310.0
15:59:11,-1016.0,356.0,310.0
15:59:11,-1016.0,356.0,310.0
15:59:11,-1016.0,356.0,310.0
15:59:11,-971.0,357.0,309.0
15:59:11,-971.0,357.0,309.0
15:59:11,-971.0,357.0,309.0
15:59:11,-971.0,357.0,309.0
15:59:11,-945.0,356.0,309.0
15:59:11,-945.0,356.0,309.0
15:59:11,-945.0,356.0,309.0
15:59:11,-945.0,356.0,309.0
15:59:11,-973.0,358.0,308.0
15:59:11,-973.0,358.0,308.0
15:59:11,-973.0,358.0,308.0
15:59:11,-973.0,358.0,308.0
15:59:11,-955.0,358.0,310.0
15:59:11,-955.0,358.0,310.0
15:59:11,-955.0,358.0,310.0
15:59:11,-955.0,358.0,310.0
15:59:11,-952.0,359.0,309.0
15:59:11,-952.0,359.0,309.0
15:59:11,-952.0,359.0,309.0
15:59:11,-952.0,359.0,309.0
15:59:11,-1004.0,357.0,309.0
15:59:11,-1004.0,357.0,309.0
15:59:11,-1004.0,357.0,309.0
15:59:11,-1004.0,357.0,309.0
15:59:11,-970.0,358.0,309.0
15:59:11,-970.0,358.0,309.0
15:59:11,-970.0,358.0,309.0
15:59:11,-970.0,358.0,309.0
15:59:11,-1040.0,357.0,310.0
15:59:11,-1040.0,357.0,310.0
15:59:11,-1040.0,357.0,310.0
15:59:11,-1040.0,357.0,310.0
15:59:11,-1023.0,359.0,309.0
15:59:11,-1023.0,359.0,309.0
15:59:11,-1023.0,359.0,309.0
15:59:11,-1023.0,359.0,309.0
15:59:11,-955.0,358.0,310.0
15:59:11,-955.0,358.0,310.0
15:59:11,-955.0,358.0,310.0
15:59:11,-955.0,358.0,310.0
15:59:11,-894.0,357.0,311.0
15:59:11,-894.0,357.0,311.0
15:59:11,-894.0,357.0,311.0
15:59:11,-894.0,357.0,311.0
15:59:11,-964.0,357.0,309.0
15:59:11,-964.0,357.0,309.0
15:59:11,-964.0,357.0,309.0
15:59:11,-964.0,357.0,309.0
15:59:11,-1037.0,357.0,309.0
15:59:11,-1037.0,357.0,309.0
15:59:11,-1037.0,357.0,309.0
15:59:11,-1037.0,357.0,309.0
15:59:11,-1052.0,357.0,309.0
15:59:11,-1052.0,357.0,309.0
15:59:11,-1052.0,357.0,309.0
15:59:11,-1052.0,357.0,309.0
15:59:11,-1088.0,358.0,308.0
15:59:11,-1088.0,358.0,308.0
15:59:11,-1088.0,358.0,308.0
15:59:11,-1088.0,358.0,308.0
15:59:11,-459.0,357.0,310.0
15:59:11,-459.0,357.0,310.0
15:59:11,-459.0,357.0,310.0
15:59:11,-459.0,357.0,310.0
15:59:11,-300.0,358.0,310.0
15:59:11,-300.0,358.0,310.0
15:59:11,-300.0,358.0,310.0
15:59:11,-300.0,358.0,310.0
15:59:11,-994.0,357.0,310.0
15:59:11,-994.0,357.0,310.0
15:59:11,-994.0,357.0,310.0
15:59:11,-994.0,357.0,310.0
15:59:11,-1072.0,357.0,310.0
15:59:11,-1072.0,357.0,310.0
15:59:11,-1072.0,357.0,310.0
15:59:11,-1072.0,357.0,310.0
15:59:11,-1008.0,358.0,309.0
15:59:11,-1008.0,358.0,309.0
15:59:11,-1008.0,358.0,309.0
15:59:11,-1008.0,358.0,309.0
15:59:11,-1085.0,358.0,310.0
15:59:11,-1085.0,358.0,310.0
15:59:11,-1085.0,358.0,310.0
15:59:11,-1085.0,358.0,310.0
15:59:11,-1061.0,359.0,309.0
15:59:11,-1061.0,359.0,309.0
15:59:11,-1061.0,359.0,309.0
15:59:11,-1061.0,359.0,309.0
15:59:11,-1026.0,358.0,309.0
15:59:11,-1026.0,358.0,309.0
15:59:11,-1026.0,358.0,309.0
15:59:11,-1026.0,358.0,309.0
15:59:11,-958.0,357.0,309.0
15:59:11,-958.0,357.0,309.0
15:59:11,-958.0,357.0,309.0
15:59:11,-958.0,357.0,309.0
15:59:11,-971.0,358.0,310.0
15:59:11,-971.0,358.0,310.0
15:59:11,-971.0,358.0,310.0
15:59:11,-971.0,358.0,310.0
15:59:11,-832.0,358.0,309.0
15:59:11,-832.0,358.0,309.0
15:59:11,-832.0,358.0,309.0
15:59:11,-832.0,358.0,309.0
15:59:11,-822.0,358.0,309.0
15:59:11,-822.0,358.0,309.0
15:59:11,-822.0,358.0,309.0
15:59:11,-822.0,358.0,309.0
15:59:11,-784.0,359.0,309.0
15:59:11,-784.0,359.0,309.0
15:59:11,-784.0,359.0,309.0
15:59:11,-784.0,359.0,309.0
15:59:11,-864.0,357.0,310.0
15:59:11,-864.0,357.0,310.0
15:59:11,-864.0,357.0,310.0
15:59:11,-864.0,357.0,310.0
15:59:11,-1003.0,358.0,308.0
15:59:12,-1003.0,358.0,308.0
15:59:12,-1003.0,358.0,308.0
15:59:12,-1003.0,358.0,308.0
15:59:12,-1109.0,357.0,309.0
15:59:12,-1109.0,357.0,309.0
15:59:12,-1109.0,357.0,309.0
15:59:12,-1109.0,357.0,309.0
15:59:12,-1118.0,356.0,309.0
15:59:12,-1118.0,356.0,309.0
15:59:12,-1118.0,356.0,309.0
15:59:12,-1118.0,356.0,309.0
15:59:12,-1122.0,357.0,310.0
15:59:12,-1122.0,357.0,310.0
15:59:12,-1122.0,357.0,310.0
15:59:12,-1122.0,357.0,310.0
15:59:12,-1114.0,358.0,308.0
15:59:12,-1114.0,358.0,308.0
15:59:12,-1114.0,358.0,308.0
15:59:12,-1114.0,358.0,308.0
15:59:12,-1112.0,357.0,309.0
15:59:12,-1112.0,357.0,309.0
15:59:12,-1112.0,357.0,309.0
15:59:12,-1112.0,357.0,309.0
15:59:12,-1110.0,357.0,308.0
15:59:12,-1110.0,357.0,308.0
15:59:12,-1110.0,357.0,308.0
15:59:12,-1110.0,357.0,308.0
15:59:12,-1165.0,358.0,308.0
15:59:12,-1165.0,358.0,308.0
15:59:12,-1165.0,358.0,308.0
15:59:12,-1165.0,358.0,308.0
15:59:12,-1085.0,358.0,310.0
15:59:12,-1085.0,358.0,310.0
15:59:12,-1085.0,358.0,310.0
15:59:12,-1085.0,358.0,310.0
15:59:12,-1132.0,357.0,309.0
15:59:12,-1132.0,357.0,309.0
15:59:12,-1132.0,357.0,309.0
15:59:12,-1132.0,357.0,309.0
15:59:12,-1097.0,357.0,309.0
15:59:12,-1097.0,357.0,309.0
15:59:12,-1097.0,357.0,309.0
15:59:12,-1097.0,357.0,309.0
15:59:12,-1116.0,357.0,310.0
15:59:12,-1116.0,357.0,310.0
15:59:12,-1116.0,357.0,310.0
15:59:12,-1116.0,357.0,310.0
15:59:12,-1190.0,358.0,309.0
15:59:12,-1190.0,358.0,309.0
15:59:12,-1190.0,358.0,309.0
15:59:12,-1190.0,358.0,309.0
15:59:12,-1167.0,358.0,310.0
15:59:12,-1167.0,358.0,310.0
15:59:12,-1167.0,358.0,310.0
15:59:12,-1167.0,358.0,310.0
15:59:12,-1168.0,358.0,309.0
15:59:12,-1168.0,358.0,309.0
15:59:12,-1168.0,358.0,309.0
15:59:12,-1168.0,358.0,309.0
15:59:12,-1114.0,357.0,310.0
15:59:12,-1114.0,357.0,310.0
15:59:12,-1114.0,357.0,310.0
15:59:12,-1114.0,357.0,310.0
15:59:12,-1129.0,358.0,308.0
15:59:12,-1129.0,358.0,308.0
15:59:12,-1129.0,358.0,308.0
15:59:12,-1129.0,358.0,308.0
15:59:12,-1136.0,358.0,310.0
15:59:12,-1136.0,358.0,310.0
15:59:12,-1136.0,358.0,310.0
15:59:12,-1136.0,358.0,310.0
15:59:12,-1248.0,359.0,310.0
15:59:12,-1248.0,359.0,310.0
15:59:12,-1248.0,359.0,310.0
15:59:12,-1248.0,359.0,310.0
15:59:12,-1325.0,358.0,310.0
15:59:12,-1325.0,358.0,310.0
15:59:12,-1325.0,358.0,310.0
15:59:12,-1325.0,358.0,310.0
15:59:12,-1320.0,358.0,310.0
15:59:12,-1320.0,358.0,310.0
15:59:12,-1320.0,358.0,310.0
15:59:12,-1320.0,358.0,310.0
15:59:12,-418.0,357.0,310.0
15:59:12,-418.0,357.0,310.0
15:59:12,-418.0,357.0,310.0
15:59:12,-418.0,357.0,310.0
15:59:12,-758.0,357.0,309.0
15:59:12,-758.0,357.0,309.0
15:59:12,-758.0,357.0,309.0
15:59:12,-758.0,357.0,309.0
15:59:12,-1360.0,357.0,311.0
15:59:12,-1360.0,357.0,311.0
15:59:12,-1360.0,357.0,311.0
15:59:12,-1360.0,357.0,311.0
15:59:12,-1323.0,357.0,311.0
15:59:12,-1323.0,357.0,311.0
15:59:12,-1323.0,357.0,311.0
15:59:12,-1323.0,357.0,311.0
15:59:12,-1390.0,357.0,308.0
15:59:12,-1390.0,357.0,308.0
15:59:12,-1390.0,357.0,308.0
15:59:12,-1390.0,357.0,308.0
15:59:12,-1376.0,358.0,309.0
15:59:12,-1376.0,358.0,309.0
15:59:12,-1376.0,358.0,309.0
15:59:12,-1376.0,358.0,309.0
15:59:12,-1372.0,358.0,309.0
15:59:12,-1372.0,358.0,309.0
15:59:12,-1372.0,358.0,309.0
15:59:12,-1372.0,358.0,309.0
15:59:12,-1373.0,358.0,309.0
15:59:12,-1373.0,358.0,309.0
15:59:12,-1373.0,358.0,309.0
15:59:12,-1373.0,358.0,309.0
15:59:12,-1331.0,357.0,308.0
15:59:12,-1331.0,357.0,308.0
15:59:12,-1331.0,357.0,308.0
15:59:12,-1331.0,357.0,308.0
15:59:12,-1236.0,357.0,309.0
15:59:12,-1236.0,357.0,309.0
15:59:12,-1236.0,357.0,309.0
15:59:12,-1236.0,357.0,309.0
15:59:12,-1203.0,358.0,308.0
15:59:12,-1203.0,358.0,308.0
15:59:12,-1203.0,358.0,308.0
15:59:12,-1203.0,358.0,308.0
15:59:12,-1196.0,357.0,308.0
15:59:12,-1196.0,357.0,308.0
15:59:12,-1196.0,357.0,308.0
15:59:12,-1196.0,357.0,308.0
15:59:12,-1217.0,357.0,311.0
15:59:12,-1217.0,357.0,311.0
15:59:12,-1217.0,357.0,311.0
15:59:12,-1217.0,357.0,311.0
15:59:12,-1271.0,358.0,310.0
15:59:12,-1271.0,358.0,310.0
15:59:12,-1271.0,358.0,310.0
15:59:12,-1271.0,358.0,310.0
15:59:12,-1459.0,359.0,309.0
15:59:12,-1459.0,359.0,309.0
15:59:12,-1459.0,359.0,309.0
15:59:12,-1459.0,359.0,309.0
15:59:12,-1479.0,357.0,310.0
15:59:12,-1479.0,357.0,310.0
15:59:12,-1479.0,357.0,310.0
15:59:12,-1479.0,357.0,310.0
15:59:12,-1496.0,358.0,310.0
15:59:12,-1496.0,358.0,310.0
15:59:12,-1496.0,358.0,310.0
15:59:12,-1496.0,358.0,310.0
15:59:12,-1517.0,357.0,310.0
15:59:12,-1517.0,357.0,310.0
15:59:12,-1517.0,357.0,310.0
15:59:12,-1517.0,357.0,310.0
15:59:12,-1511.0,358.0,309.0
15:59:12,-1511.0,358.0,309.0
15:59:12,-1511.0,358.0,309.0
15:59:12,-1511.0,358.0,309.0
15:59:12,-1549.0,359.0,309.0
15:59:12,-1549.0,359.0,309.0
15:59:12,-1549.0,359.0,309.0
15:59:12,-1549.0,359.0,309.0
15:59:12,-1506.0,358.0,309.0
15:59:12,-1506.0,358.0,309.0
15:59:12,-1506.0,358.0,309.0
15:59:12,-1506.0,358.0,309.0
15:59:12,-1501.0,359.0,309.0
15:59:12,-1501.0,359.0,309.0
15:59:12,-1501.0,359.0,309.0
15:59:12,-1501.0,359.0,309.0
15:59:12,-1521.0,357.0,310.0
15:59:12,-1521.0,357.0,310.0
15:59:12,-1521.0,357.0,310.0
15:59:12,-1521.0,357.0,310.0
15:59:12,-1441.0,357.0,309.0
15:59:12,-1441.0,357.0,309.0
15:59:12,-1441.0,357.0,309.0
15:59:12,-1441.0,357.0,309.0
15:59:12,-1496.0,357.0,309.0
15:59:12,-1496.0,357.0,309.0
15:59:12,-1496.0,357.0,309.0
15:59:12,-1496.0,357.0,309.0
15:59:12,-1529.0,357.0,310.0
15:59:12,-1529.0,357.0,310.0
15:59:12,-1529.0,357.0,310.0
15:59:12,-1529.0,357.0,310.0
15:59:12,-1497.0,357.0,310.0
15:59:12,-1497.0,357.0,310.0
15:59:12,-1497.0,357.0,310.0
15:59:12,-1497.0,357.0,310.0
15:59:12,-1503.0,357.0,309.0
15:59:12,-1503.0,357.0,309.0
15:59:12,-1503.0,357.0,309.0
15:59:12,-1503.0,357.0,309.0
15:59:12,-1529.0,359.0,310.0
15:59:12,-1529.0,359.0,310.0
15:59:12,-1529.0,359.0,310.0
15:59:12,-1529.0,359.0,310.0
15:59:12,-1560.0,359.0,310.0
15:59:12,-1560.0,359.0,310.0
15:59:13,-1560.0,359.0,310.0
15:59:13,-1560.0,359.0,310.0
15:59:13,-1536.0,358.0,310.0
15:59:13,-1536.0,358.0,310.0
15:59:13,-1536.0,358.0,310.0
15:59:13,-1536.0,358.0,310.0
15:59:13,-1408.0,359.0,309.0
15:59:13,-1408.0,359.0,309.0
15:59:13,-1408.0,359.0,309.0
15:59:13,-1408.0,359.0,309.0
15:59:13,-1489.0,358.0,309.0
15:59:13,-1489.0,358.0,309.0
15:59:13,-1489.0,358.0,309.0
15:59:13,-1489.0,358.0,309.0
15:59:13,-1573.0,360.0,310.0
15:59:13,-1573.0,360.0,310.0
15:59:13,-1573.0,360.0,310.0
15:59:13,-1573.0,360.0,310.0
15:59:13,-1622.0,357.0,309.0
15:59:13,-1622.0,357.0,309.0
15:59:13,-1622.0,357.0,309.0
15:59:13,-1622.0,357.0,309.0
15:59:13,-1644.0,360.0,311.0
15:59:13,-1644.0,360.0,311.0
15:59:13,-1644.0,360.0,311.0
15:59:13,-1644.0,360.0,311.0
15:59:13,-1079.0,359.0,309.0
15:59:13,-1079.0,359.0,309.0
15:59:13,-1079.0,359.0,309.0
15:59:13,-1079.0,359.0,309.0
15:59:13,-781.0,359.0,310.0
15:59:13,-781.0,359.0,310.0
15:59:13,-781.0,359.0,310.0
15:59:13,-781.0,359.0,310.0
15:59:13,-1607.0,357.0,310.0
15:59:13,-1607.0,357.0,310.0
15:59:13,-1607.0,357.0,310.0
15:59:13,-1607.0,357.0,310.0
15:59:13,-1686.0,359.0,310.0
15:59:13,-1686.0,359.0,310.0
15:59:13,-1686.0,359.0,310.0
15:59:13,-1686.0,359.0,310.0
15:59:13,-1728.0,358.0,310.0
15:59:13,-1728.0,358.0,310.0
15:59:13,-1728.0,358.0,310.0
15:59:13,-1728.0,358.0,310.0
15:59:13,-1691.0,358.0,309.0
15:59:13,-1691.0,358.0,309.0
15:59:13,-1691.0,358.0,309.0
15:59:13,-1691.0,358.0,309.0
15:59:13,-1691.0,358.0,310.0
15:59:13,-1691.0,358.0,310.0
15:59:13,-1691.0,358.0,310.0
15:59:13,-1691.0,358.0,310.0
15:59:13,-1694.0,357.0,309.0
15:59:13,-1694.0,357.0,309.0
15:59:13,-1694.0,357.0,309.0
15:59:13,-1694.0,357.0,309.0
15:59:13,-1750.0,358.0,309.0
15:59:13,-1750.0,358.0,309.0
15:59:13,-1750.0,358.0,309.0
15:59:13,-1750.0,358.0,309.0
15:59:13,-1691.0,358.0,309.0
15:59:13,-1691.0,358.0,309.0
15:59:13,-1691.0,358.0,309.0
15:59:13,-1691.0,358.0,309.0
15:59:13,-1583.0,358.0,311.0
15:59:13,-1583.0,358.0,311.0
15:59:13,-1583.0,358.0,311.0
15:59:13,-1583.0,358.0,311.0
15:59:13,-1544.0,356.0,310.0
15:59:13,-1544.0,356.0,310.0
15:59:13,-1544.0,356.0,310.0
15:59:13,-1544.0,356.0,310.0
15:59:13,-1587.0,358.0,309.0
15:59:13,-1587.0,358.0,309.0
15:59:13,-1587.0,358.0,309.0
15:59:13,-1587.0,358.0,309.0
15:59:13,-1722.0,357.0,310.0
15:59:13,-1722.0,357.0,310.0
15:59:13,-1722.0,357.0,310.0
15:59:13,-1722.0,357.0,310.0
15:59:13,-1826.0,359.0,309.0
15:59:13,-1826.0,359.0,309.0
15:59:13,-1826.0,359.0,309.0
15:59:13,-1826.0,359.0,309.0
15:59:13,-1872.0,359.0,309.0
15:59:13,-1872.0,359.0,309.0
15:59:13,-1872.0,359.0,309.0
15:59:13,-1872.0,359.0,309.0
15:59:13,-1923.0,359.0,310.0
15:59:13,-1923.0,359.0,310.0
15:59:13,-1923.0,359.0,310.0
15:59:13,-1923.0,359.0,310.0
15:59:13,-1953.0,358.0,309.0
15:59:13,-1953.0,358.0,309.0
15:59:13,-1953.0,358.0,309.0
15:59:13,-1953.0,358.0,309.0
15:59:13,-1943.0,358.0,309.0
15:59:13,-1943.0,358.0,309.0
15:59:13,-1943.0,358.0,309.0
15:59:13,-1943.0,358.0,309.0
15:59:13,-1945.0,359.0,311.0
15:59:13,-1945.0,359.0,311.0
15:59:13,-1945.0,359.0,311.0
15:59:13,-1945.0,359.0,311.0
15:59:13,-1895.0,357.0,310.0
15:59:13,-1895.0,357.0,310.0
15:59:13,-1895.0,357.0,310.0
15:59:13,-1895.0,357.0,310.0
15:59:13,-1945.0,358.0,310.0
15:59:13,-1945.0,358.0,310.0
15:59:13,-1945.0,358.0,310.0
15:59:13,-1945.0,358.0,310.0
15:59:13,-1903.0,357.0,308.0
15:59:13,-1903.0,357.0,308.0
15:59:13,-1903.0,357.0,308.0
15:59:13,-1903.0,357.0,308.0
15:59:13,-1926.0,357.0,309.0
15:59:13,-1926.0,357.0,309.0
15:59:13,-1926.0,357.0,309.0
15:59:13,-1926.0,357.0,309.0
15:59:13,-1926.0,357.0,310.0
15:59:13,-1926.0,357.0,310.0
15:59:13,-1926.0,357.0,310.0
15:59:13,-1926.0,357.0,310.0
15:59:13,-1946.0,358.0,310.0
15:59:13,-1946.0,358.0,310.0
15:59:13,-1946.0,358.0,310.0
15:59:13,-1946.0,358.0,310.0
15:59:13,-1962.0,358.0,310.0
15:59:13,-1962.0,358.0,310.0
15:59:13,-1962.0,358.0,310.0
15:59:13,-1962.0,358.0,310.0
15:59:13,-1942.0,357.0,310.0
15:59:13,-1942.0,357.0,310.0
15:59:13,-1942.0,357.0,310.0
15:59:13,-1942.0,357.0,310.0
15:59:13,-1993.0,358.0,309.0
15:59:13,-1993.0,358.0,309.0
15:59:13,-1993.0,358.0,309.0
15:59:13,-1993.0,358.0,309.0
15:59:13,-1951.0,358.0,310.0
15:59:13,-1951.0,358.0,310.0
15:59:13,-1951.0,358.0,310.0
15:59:13,-1951.0,358.0,310.0
15:59:13,-2011.0,357.0,310.0
15:59:13,-2011.0,357.0,310.0
15:59:13,-2011.0,357.0,310.0
15:59:13,-2011.0,357.0,310.0
15:59:13,-1984.0,359.0,310.0
15:59:13,-1984.0,359.0,310.0
15:59:13,-1984.0,359.0,310.0
15:59:13,-1984.0,359.0,310.0
15:59:13,-2014.0,358.0,310.0
15:59:13,-2014.0,358.0,310.0
15:59:13,-2014.0,358.0,310.0
15:59:13,-2014.0,358.0,310.0
15:59:13,-1918.0,358.0,310.0
15:59:13,-1918.0,358.0,310.0
15:59:13,-1918.0,358.0,310.0
15:59:13,-1918.0,358.0,310.0
15:59:13,-1931.0,358.0,309.0
15:59:13,-1931.0,358.0,309.0
15:59:13,-1931.0,358.0,309.0
15:59:13,-1931.0,358.0,309.0
15:59:13,-1952.0,358.0,310.0
15:59:13,-1952.0,358.0,310.0
15:59:13,-1952.0,358.0,310.0
15:59:13,-1952.0,358.0,310.0
15:59:13,-1956.0,359.0,310.0
15:59:13,-1956.0,359.0,310.0
15:59:13,-1956.0,359.0,310.0
15:59:13,-1956.0,359.0,310.0
15:59:13,-2090.0,358.0,309.0
15:59:13,-2090.0,358.0,309.0
15:59:13,-2090.0,358.0,309.0
15:59:13,-2090.0,358.0,309.0
15:59:13,-2055.0,358.0,310.0
15:59:13,-2055.0,358.0,310.0
15:59:13,-2055.0,358.0,310.0
15:59:13,-2055.0,358.0,310.0
15:59:13,-1867.0,356.0,310.0
15:59:13,-1867.0,356.0,310.0
15:59:13,-1867.0,356.0,310.0
15:59:13,-1867.0,356.0,310.0
15:59:13,-1032.0,359.0,309.0
15:59:13,-1032.0,359.0,309.0
15:59:13,-1032.0,359.0,309.0
15:59:13,-1032.0,359.0,309.0
15:59:13,-1842.0,359.0,310.0
15:59:13,-1842.0,359.0,310.0
15:59:13,-1842.0,359.0,310.0
15:59:13,-1842.0,359.0,310.0
15:59:13,-2125.0,357.0,309.0
15:59:13,-2125.0,357.0,309.0
15:59:13,-2125.0,357.0,309.0
15:59:13,-2125.0,357.0,309.0
15:59:13,-2090.0,359.0,309.0
15:59:13,-2090.0,359.0,309.0
15:59:13,-2090.0,359.0,309.0
15:59:14,-2090.0,359.0,309.0
15:59:14,-2075.0,358.0,310.0
15:59:14,-2075.0,358.0,310.0
15:59:14,-2075.0,358.0,310.0
15:59:14,-2075.0,358.0,310.0
15:59:14,-2111.0,358.0,310.0
15:59:14,-2111.0,358.0,310.0
15:59:14,-2111.0,358.0,310.0
15:59:14,-2111.0,358.0,310.0
15:59:14,-2064.0,358.0,310.0
15:59:14,-2064.0,358.0,310.0
15:59:14,-2064.0,358.0,310.0
15:59:14,-2064.0,358.0,310.0
15:59:14,-2031.0,359.0,310.0
15:59:14,-2031.0,359.0,310.0
15:59:14,-2031.0,359.0,310.0
15:59:14,-2031.0,359.0,310.0
15:59:14,-1946.0,357.0,310.0
15:59:14,-1946.0,357.0,310.0
15:59:14,-1946.0,357.0,310.0
15:59:14,-1946.0,357.0,310.0
15:59:14,-1923.0,358.0,309.0
15:59:14,-1923.0,358.0,309.0
15:59:14,-1923.0,358.0,309.0
15:59:14,-1923.0,358.0,309.0
15:59:14,-1893.0,358.0,310.0
15:59:14,-1893.0,358.0,310.0
15:59:14,-1893.0,358.0,310.0
15:59:14,-1893.0,358.0,310.0
15:59:14,-1829.0,358.0,309.0
15:59:14,-1829.0,358.0,309.0
15:59:14,-1829.0,358.0,309.0
15:59:14,-1829.0,358.0,309.0
15:59:14,-1892.0,359.0,309.0
15:59:14,-1892.0,359.0,309.0
15:59:14,-1892.0,359.0,309.0
15:59:14,-1892.0,359.0,309.0
15:59:14,-2039.0,358.0,310.0
15:59:14,-2039.0,358.0,310.0
15:59:14,-2039.0,358.0,310.0
15:59:14,-2039.0,358.0,310.0
15:59:14,-2160.0,359.0,309.0
15:59:14,-2160.0,359.0,309.0
15:59:14,-2160.0,359.0,309.0
15:59:14,-2160.0,359.0,309.0
15:59:14,-2191.0,358.0,309.0
15:59:14,-2191.0,358.0,309.0
15:59:14,-2191.0,358.0,309.0
15:59:14,-2191.0,358.0,309.0
15:59:14,-2195.0,360.0,309.0
15:59:14,-2195.0,360.0,309.0
15:59:14,-2195.0,360.0,309.0
15:59:14,-2195.0,360.0,309.0
15:59:14,-2280.0,358.0,310.0
15:59:14,-2280.0,358.0,310.0
15:59:14,-2280.0,358.0,310.0
15:59:14,-2280.0,358.0,310.0
15:59:14,-2218.0,357.0,310.0
15:59:14,-2218.0,357.0,310.0
15:59:14,-2218.0,357.0,310.0
15:59:14,-2218.0,357.0,310.0
15:59:14,-2240.0,358.0,311.0
15:59:14,-2240.0,358.0,311.0
15:59:14,-2240.0,358.0,311.0
15:59:14,-2240.0,358.0,311.0
15:59:14,-2261.0,357.0,310.0
15:59:14,-2261.0,357.0,310.0
15:59:14,-2261.0,357.0,310.0
15:59:14,-2261.0,357.0,310.0
15:59:14,-2315.0,358.0,309.0
15:59:14,-2315.0,358.0,309.0
15:59:14,-2315.0,358.0,309.0
15:59:14,-2315.0,358.0,309.0
15:59:14,-2308.0,357.0,310.0
15:59:14,-2308.0,357.0,310.0
15:59:14,-2308.0,357.0,310.0
15:59:14,-2308.0,357.0,310.0
15:59:14,-2330.0,358.0,309.0
15:59:14,-2330.0,358.0,309.0
15:59:14,-2330.0,358.0,309.0
15:59:14,-2330.0,358.0,309.0
15:59:14,-2376.0,357.0,310.0
15:59:14,-2376.0,357.0,310.0
15:59:14,-2376.0,357.0,310.0
15:59:14,-2376.0,357.0,310.0
15:59:14,-2376.0,357.0,311.0
15:59:14,-2376.0,357.0,311.0
15:59:14,-2376.0,357.0,311.0
15:59:14,-2376.0,357.0,311.0
15:59:14,-2414.0,358.0,310.0
15:59:14,-2414.0,358.0,310.0
15:59:14,-2414.0,358.0,310.0
15:59:14,-2414.0,358.0,310.0
15:59:14,-2450.0,357.0,311.0
15:59:14,-2450.0,357.0,311.0
15:59:14,-2450.0,357.0,311.0
15:59:14,-2450.0,357.0,311.0
15:59:14,-2476.0,359.0,310.0
15:59:14,-2476.0,359.0,310.0
15:59:14,-2476.0,359.0,310.0
15:59:14,-2476.0,359.0,310.0
15:59:14,-2442.0,358.0,309.0
15:59:14,-2442.0,358.0,309.0
15:59:14,-2442.0,358.0,309.0
15:59:14,-2442.0,358.0,309.0
15:59:14,-2519.0,359.0,310.0
15:59:14,-2519.0,359.0,310.0
15:59:14,-2519.0,359.0,310.0
15:59:14,-2519.0,359.0,310.0
15:59:14,-2522.0,357.0,310.0
15:59:14,-2522.0,357.0,310.0
15:59:14,-2522.0,357.0,310.0
15:59:14,-2522.0,357.0,310.0
15:59:14,-2584.0,358.0,310.0
15:59:14,-2584.0,358.0,310.0
15:59:14,-2584.0,358.0,310.0
15:59:14,-2584.0,358.0,310.0
15:59:14,-2578.0,358.0,310.0
15:59:14,-2578.0,358.0,310.0
15:59:14,-2578.0,358.0,310.0
15:59:14,-2578.0,358.0,310.0
15:59:14,-2604.0,358.0,310.0
15:59:14,-2604.0,358.0,310.0
15:59:14,-2604.0,358.0,310.0
15:59:14,-2604.0,358.0,310.0
15:59:14,-2530.0,358.0,310.0
15:59:14,-2530.0,358.0,310.0
15:59:14,-2530.0,358.0,310.0
15:59:14,-2530.0,358.0,310.0
15:59:14,-2592.0,359.0,310.0
15:59:14,-2592.0,359.0,310.0
15:59:14,-2592.0,359.0,310.0
15:59:14,-2592.0,359.0,310.0
15:59:14,-2744.0,357.0,310.0
15:59:14,-2744.0,357.0,310.0
15:59:14,-2744.0,357.0,310.0
15:59:14,-2744.0,357.0,310.0
15:59:14,-2796.0,358.0,308.0
15:59:14,-2796.0,358.0,308.0
15:59:14,-2796.0,358.0,308.0
15:59:14,-2796.0,358.0,308.0
15:59:14,-2831.0,358.0,308.0
15:59:14,-2831.0,358.0,308.0
15:59:14,-2831.0,358.0,308.0
15:59:14,-2831.0,358.0,308.0
15:59:14,-2144.0,359.0,308.0
15:59:14,-2144.0,359.0,308.0
15:59:14,-2144.0,359.0,308.0
15:59:14,-2144.0,359.0,308.0
15:59:14,-2203.0,357.0,310.0
15:59:14,-2203.0,357.0,310.0
15:59:14,-2203.0,357.0,310.0
15:59:14,-2203.0,357.0,310.0
15:59:14,-2921.0,358.0,309.0
15:59:14,-2921.0,358.0,309.0
15:59:14,-2921.0,358.0,309.0
15:59:14,-2921.0,358.0,309.0
15:59:14,-3003.0,358.0,309.0
15:59:14,-3003.0,358.0,309.0
15:59:14,-3003.0,358.0,309.0
15:59:14,-3003.0,358.0,309.0
15:59:14,-3030.0,357.0,309.0
15:59:14,-3030.0,357.0,309.0
15:59:14,-3030.0,357.0,309.0
15:59:14,-3030.0,357.0,309.0
15:59:14,-3011.0,358.0,308.0
15:59:14,-3011.0,358.0,308.0
15:59:14,-3011.0,358.0,308.0
15:59:14,-3011.0,358.0,308.0
15:59:14,-3017.0,357.0,309.0
15:59:14,-3017.0,357.0,309.0
15:59:14,-3017.0,357.0,309.0
15:59:14,-3017.0,357.0,309.0
15:59:14,-3029.0,358.0,308.0
15:59:14,-3029.0,358.0,308.0
15:59:14,-3029.0,358.0,308.0
15:59:14,-3029.0,358.0,308.0
15:59:14,-3014.0,358.0,309.0
15:59:14,-3014.0,358.0,309.0
15:59:14,-3014.0,358.0,309.0
15:59:14,-3014.0,358.0,309.0
15:59:14,-2973.0,358.0,310.0
15:59:14,-2973.0,358.0,310.0
15:59:14,-2973.0,358.0,310.0
15:59:14,-2973.0,358.0,310.0
15:59:14,-2964.0,357.0,309.0
15:59:14,-2964.0,357.0,309.0
15:59:14,-2964.0,357.0,309.0
15:59:14,-2964.0,357.0,309.0
15:59:14,-2926.0,358.0,308.0
15:59:14,-2926.0,358.0,308.0
15:59:14,-2926.0,358.0,308.0
15:59:14,-2926.0,358.0,308.0
15:59:14,-2894.0,359.0,310.0
15:59:14,-2894.0,359.0,310.0
15:59:14,-2894.0,359.0,310.0
15:59:14,-2894.0,359.0,310.0
15:59:14,-2979.0,358.0,308.0
15:59:14,-2979.0,358.0,308.0
15:59:14,-2979.0,358.0,308.0
15:59:14,-2979.0,358.0,308.0
15:59:15,-3165.0,359.0,309.0
15:59:15,-3165.0,359.0,309.0
15:59:15,-3165.0,359.0,309.0
15:59:15,-3165.0,359.0,309.0
15:59:15,-3269.0,358.0,309.0
15:59:15,-3269.0,358.0,309.0
15:59:15,-3269.0,358.0,309.0
15:59:15,-3269.0,358.0,309.0
15:59:15,-3294.0,358.0,309.0
15:59:15,-3294.0,358.0,309.0
15:59:15,-3294.0,358.0,309.0
15:59:15,-3294.0,358.0,309.0
15:59:15,-3376.0,358.0,308.0
15:59:15,-3376.0,358.0,308.0
15:59:15,-3376.0,358.0,308.0
15:59:15,-3376.0,358.0,308.0
15:59:15,-3314.0,357.0,310.0
15:59:15,-3314.0,357.0,310.0
15:59:15,-3314.0,357.0,310.0
15:59:15,-3314.0,357.0,310.0
15:59:15,-3341.0,357.0,310.0
15:59:15,-3341.0,357.0,310.0
15:59:15,-3341.0,357.0,310.0
15:59:15,-3341.0,357.0,310.0
15:59:15,-3374.0,359.0,308.0
15:59:15,-3374.0,359.0,308.0
15:59:15,-3374.0,359.0,308.0
15:59:15,-3374.0,359.0,308.0
15:59:15,-3270.0,359.0,309.0
15:59:15,-3270.0,359.0,309.0
15:59:15,-3270.0,359.0,309.0
15:59:15,-3270.0,359.0,309.0
15:59:15,-3346.0,357.0,309.0
15:59:15,-3346.0,357.0,309.0
15:59:15,-3346.0,357.0,309.0
15:59:15,-3346.0,357.0,309.0
15:59:15,-3355.0,360.0,310.0
15:59:15,-3355.0,360.0,310.0
15:59:15,-3355.0,360.0,310.0
15:59:15,-3355.0,360.0,310.0
15:59:15,-3387.0,357.0,309.0
15:59:15,-3387.0,357.0,309.0
15:59:15,-3387.0,357.0,309.0
15:59:15,-3387.0,357.0,309.0
15:59:15,-3364.0,359.0,309.0
15:59:15,-3364.0,359.0,309.0
15:59:15,-3364.0,359.0,309.0
15:59:15,-3364.0,359.0,309.0
15:59:15,-3425.0,358.0,309.0
15:59:15,-3425.0,358.0,309.0
15:59:15,-3425.0,358.0,309.0
15:59:15,-3425.0,358.0,309.0
15:59:15,-3370.0,358.0,310.0
15:59:15,-3370.0,358.0,310.0
15:59:15,-3370.0,358.0,310.0
15:59:15,-3370.0,358.0,310.0
15:59:15,-3404.0,358.0,309.0
15:59:15,-3404.0,358.0,309.0
15:59:15,-3404.0,358.0,309.0
15:59:15,-3404.0,358.0,309.0
15:59:15,-3389.0,358.0,310.0
15:59:15,-3389.0,358.0,310.0
15:59:15,-3389.0,358.0,310.0
15:59:15,-3389.0,358.0,310.0
15:59:15,-3360.0,358.0,310.0
15:59:15,-3360.0,358.0,310.0
15:59:15,-3360.0,358.0,310.0
15:59:15,-3360.0,358.0,310.0
15:59:15,-3377.0,357.0,310.0
15:59:15,-3377.0,357.0,310.0
15:59:15,-3377.0,357.0,310.0
15:59:15,-3377.0,357.0,310.0
15:59:15,-3355.0,358.0,309.0
15:59:15,-3355.0,358.0,309.0
15:59:15,-3355.0,358.0,309.0
15:59:15,-3355.0,358.0,309.0
15:59:15,-3413.0,357.0,310.0
15:59:15,-3413.0,357.0,310.0
15:59:15,-3413.0,357.0,310.0
15:59:15,-3413.0,357.0,310.0
15:59:15,-3380.0,357.0,309.0
15:59:15,-3380.0,357.0,309.0
15:59:15,-3380.0,357.0,309.0
15:59:15,-3380.0,357.0,309.0
15:59:15,-3387.0,357.0,310.0
15:59:15,-3387.0,357.0,310.0
15:59:15,-3387.0,357.0,310.0
15:59:15,-3387.0,357.0,310.0
15:59:15,-3270.0,359.0,309.0
15:59:15,-3270.0,359.0,309.0
15:59:15,-3270.0,359.0,309.0
15:59:15,-3270.0,359.0,309.0
15:59:15,-3345.0,359.0,311.0
15:59:15,-3345.0,359.0,311.0
15:59:15,-3345.0,359.0,311.0
15:59:15,-3345.0,359.0,311.0
15:59:15,-3369.0,359.0,309.0
15:59:15,-3369.0,359.0,309.0
15:59:15,-3369.0,359.0,309.0
15:59:15,-3369.0,359.0,309.0
15:59:15,-3472.0,357.0,310.0
15:59:15,-3472.0,357.0,310.0
15:59:15,-3472.0,357.0,310.0
15:59:15,-3472.0,357.0,310.0
15:59:15,-3535.0,359.0,309.0
15:59:15,-3535.0,359.0,309.0
15:59:15,-3535.0,359.0,309.0
15:59:15,-3535.0,359.0,309.0
15:59:15,-3343.0,358.0,310.0
15:59:15,-3343.0,358.0,310.0
15:59:15,-3343.0,358.0,310.0
15:59:15,-3343.0,358.0,310.0
15:59:15,-2393.0,357.0,310.0
15:59:15,-2393.0,357.0,310.0
15:59:15,-2393.0,357.0,310.0
15:59:15,-2393.0,357.0,310.0
15:59:15,-3177.0,358.0,310.0
15:59:15,-3177.0,358.0,310.0
15:59:15,-3177.0,358.0,310.0
15:59:15,-3177.0,358.0,310.0
15:59:15,-3503.0,358.0,310.0
15:59:15,-3503.0,358.0,310.0
15:59:15,-3503.0,358.0,310.0
15:59:15,-3503.0,358.0,310.0
15:59:15,-3520.0,359.0,311.0
15:59:15,-3520.0,359.0,311.0
15:59:15,-3520.0,359.0,311.0
15:59:15,-3520.0,359.0,311.0
15:59:15,-3530.0,358.0,310.0
15:59:15,-3530.0,358.0,310.0
15:59:15,-3530.0,358.0,310.0
15:59:15,-3530.0,358.0,310.0
15:59:15,-3555.0,356.0,310.0
15:59:15,-3555.0,356.0,310.0
15:59:15,-3555.0,356.0,310.0
15:59:15,-3555.0,356.0,310.0
15:59:15,-3488.0,358.0,310.0
15:59:15,-3488.0,358.0,310.0
15:59:15,-3488.0,358.0,310.0
15:59:15,-3488.0,358.0,310.0
15:59:15,-3503.0,359.0,308.0
15:59:15,-3503.0,359.0,308.0
15:59:15,-3503.0,359.0,308.0
15:59:15,-3503.0,359.0,308.0
15:59:15,-3405.0,358.0,309.0
15:59:15,-3405.0,358.0,309.0
15:59:15,-3405.0,358.0,309.0
15:59:15,-3405.0,358.0,309.0
15:59:15,-3392.0,357.0,310.0
15:59:15,-3392.0,357.0,310.0
15:59:15,-3392.0,357.0,310.0
15:59:15,-3392.0,357.0,310.0
15:59:15,-3273.0,358.0,310.0
15:59:15,-3273.0,358.0,310.0
15:59:15,-3273.0,358.0,310.0
15:59:15,-3273.0,358.0,310.0
15:59:15,-3304.0,358.0,309.0
15:59:15,-3304.0,358.0,309.0
15:59:15,-3304.0,358.0,309.0
15:59:15,-3304.0,358.0,309.0
15:59:15,-3283.0,358.0,310.0
15:59:15,-3283.0,358.0,310.0
15:59:15,-3283.0,358.0,310.0
15:59:15,-3283.0,358.0,310.0
15:59:15,-3337.0,360.0,309.0
15:59:15,-3337.0,360.0,309.0
15:59:15,-3337.0,360.0,309.0
15:59:15,-3337.0,360.0,309.0
15:59:15,-3469.0,357.0,310.0
15:59:15,-3469.0,357.0,310.0
15:59:15,-3469.0,357.0,310.0
15:59:15,-3469.0,357.0,310.0
15:59:15,-3506.0,359.0,311.0
15:59:15,-3506.0,359.0,311.0
15:59:15,-3506.0,359.0,311.0
15:59:15,-3506.0,359.0,311.0
15:59:15,-3517.0,358.0,310.0
15:59:15,-3517.0,358.0,310.0
15:59:15,-3517.0,358.0,310.0
15:59:15,-3517.0,358.0,310.0
15:59:15,-3563.0,357.0,310.0
15:59:15,-3563.0,357.0,310.0
15:59:15,-3563.0,357.0,310.0
15:59:15,-3563.0,357.0,310.0
15:59:15,-3480.0,357.0,309.0
15:59:15,-3480.0,357.0,309.0
15:59:15,-3480.0,357.0,309.0
15:59:15,-3480.0,357.0,309.0
15:59:15,-3570.0,357.0,309.0
15:59:15,-3570.0,357.0,309.0
15:59:15,-3570.0,357.0,309.0
15:59:15,-3570.0,357.0,309.0
15:59:15,-3558.0,357.0,308.0
15:59:15,-3558.0,357.0,308.0
15:59:15,-3558.0,357.0,308.0
15:59:15,-3558.0,357.0,308.0
15:59:15,-3530.0,359.0,309.0
15:59:15,-3530.0,359.0,309.0
15:59:15,-3530.0,359.0,309.0
15:59:15,-3530.0,359.0,309.0
15:59:16,-3485.0,357.0,309.0
15:59:16,-3485.0,357.0,309.0
15:59:16,-3485.0,357.0,309.0
15:59:16,-3485.0,357.0,309.0
15:59:16,-3527.0,358.0,308.0
15:59:16,-3527.0,358.0,308.0
15:59:16,-3527.0,358.0,308.0
15:59:16,-3527.0,358.0,308.0
15:59:16,-3514.0,358.0,309.0
15:59:16,-3514.0,358.0,309.0
15:59:16,-3514.0,358.0,309.0
15:59:16,-3514.0,358.0,309.0
15:59:16,-3540.0,358.0,309.0
15:59:16,-3540.0,358.0,309.0
15:59:16,-3540.0,358.0,309.0
15:59:16,-3540.0,358.0,309.0
15:59:16,-3525.0,357.0,309.0
15:59:16,-3525.0,357.0,309.0
15:59:16,-3525.0,357.0,309.0
15:59:16,-3525.0,357.0,309.0
15:59:16,-3525.0,358.0,310.0
15:59:16,-3525.0,358.0,310.0
15:59:16,-3525.0,358.0,310.0
15:59:16,-3525.0,358.0,310.0
15:59:16,-3556.0,358.0,310.0
15:59:16,-3556.0,358.0,310.0
15:59:16,-3556.0,358.0,310.0
15:59:16,-3556.0,358.0,310.0
15:59:16,-3488.0,359.0,310.0
15:59:16,-3488.0,359.0,310.0
15:59:16,-3488.0,359.0,310.0
15:59:16,-3488.0,359.0,310.0
15:59:16,-3551.0,358.0,310.0
15:59:16,-3551.0,358.0,310.0
15:59:16,-3551.0,358.0,310.0
15:59:16,-3551.0,358.0,310.0
15:59:16,-3492.0,359.0,310.0
15:59:16,-3492.0,359.0,310.0
15:59:16,-3492.0,359.0,310.0
15:59:16,-3492.0,359.0,310.0
15:59:16,-3510.0,359.0,310.0
15:59:16,-3510.0,359.0,310.0
15:59:16,-3510.0,359.0,310.0
15:59:16,-3510.0,359.0,310.0
15:59:16,-3520.0,360.0,310.0
15:59:16,-3520.0,360.0,310.0
15:59:16,-3520.0,360.0,310.0
15:59:16,-3520.0,360.0,310.0
15:59:16,-3517.0,358.0,310.0
15:59:16,-3517.0,358.0,310.0
15:59:16,-3517.0,358.0,310.0
15:59:16,-3517.0,358.0,310.0
15:59:16,-3491.0,357.0,310.0
15:59:16,-3491.0,357.0,310.0
15:59:16,-3491.0,357.0,310.0
15:59:16,-3491.0,357.0,310.0
15:59:16,-3568.0,358.0,310.0
15:59:16,-3568.0,358.0,310.0
15:59:16,-3568.0,358.0,310.0
15:59:16,-3568.0,358.0,310.0
15:59:16,-3479.0,358.0,309.0
15:59:16,-3479.0,358.0,309.0
15:59:16,-3479.0,358.0,309.0
15:59:16,-3479.0,358.0,309.0
15:59:16,-3446.0,358.0,310.0
15:59:16,-3446.0,358.0,310.0
15:59:16,-3446.0,358.0,310.0
15:59:16,-3446.0,358.0,310.0
15:59:16,-3411.0,359.0,309.0
15:59:16,-3411.0,359.0,309.0
15:59:16,-3411.0,359.0,309.0
15:59:16,-3411.0,359.0,309.0
15:59:16,-3472.0,356.0,312.0
15:59:16,-3472.0,356.0,312.0
15:59:16,-3472.0,356.0,312.0
15:59:16,-3472.0,356.0,312.0
15:59:16,-3461.0,359.0,309.0
15:59:16,-3461.0,359.0,309.0
15:59:16,-3461.0,359.0,309.0
15:59:16,-3461.0,359.0,309.0
15:59:16,-3504.0,357.0,310.0
15:59:16,-3504.0,357.0,310.0
15:59:16,-3504.0,357.0,310.0
15:59:16,-3504.0,357.0,310.0
15:59:16,-3351.0,357.0,309.0
15:59:16,-3351.0,357.0,309.0
15:59:16,-3351.0,357.0,309.0
15:59:16,-3351.0,357.0,309.0
15:59:16,-2386.0,358.0,309.0
15:59:16,-2386.0,358.0,309.0
15:59:16,-2386.0,358.0,309.0
15:59:16,-2386.0,358.0,309.0
15:59:16,-3117.0,358.0,310.0
15:59:16,-3117.0,358.0,310.0
15:59:16,-3117.0,358.0,310.0
15:59:16,-3117.0,358.0,310.0
15:59:16,-3463.0,358.0,311.0
15:59:16,-3463.0,358.0,311.0
15:59:16,-3463.0,358.0,311.0
15:59:16,-3463.0,358.0,311.0
15:59:16,-3499.0,359.0,310.0
15:59:16,-3499.0,359.0,310.0
15:59:16,-3499.0,359.0,310.0
15:59:16,-3499.0,359.0,310.0
15:59:16,-3471.0,358.0,310.0
15:59:16,-3471.0,358.0,310.0
15:59:16,-3471.0,358.0,310.0
15:59:16,-3471.0,358.0,310.0
15:59:16,-3483.0,359.0,309.0
15:59:16,-3483.0,359.0,309.0
15:59:16,-3483.0,359.0,309.0
15:59:16,-3483.0,359.0,309.0
15:59:16,-3436.0,357.0,310.0
15:59:16,-3436.0,357.0,310.0
15:59:16,-3436.0,357.0,310.0
15:59:16,-3436.0,357.0,310.0
15:59:16,-3345.0,359.0,310.0
15:59:16,-3345.0,359.0,310.0
15:59:16,-3345.0,359.0,310.0
15:59:16,-3345.0,359.0,310.0
15:59:16,-3373.0,359.0,310.0
15:59:16,-3373.0,359.0,310.0
15:59:16,-3373.0,359.0,310.0
15:59:16,-3373.0,359.0,310.0
15:59:16,-3302.0,359.0,309.0
15:59:16,-3302.0,359.0,309.0
15:59:16,-3302.0,359.0,309.0
15:59:16,-3302.0,359.0,309.0
15:59:16,-3205.0,359.0,310.0
15:59:16,-3205.0,359.0,310.0
15:59:16,-3205.0,359.0,310.0
15:59:16,-3205.0,359.0,310.0
15:59:16,-3104.0,357.0,309.0
15:59:16,-3104.0,357.0,309.0
15:59:16,-3104.0,357.0,309.0
15:59:16,-3104.0,357.0,309.0
15:59:16,-3175.0,360.0,310.0
15:59:16,-3175.0,360.0,310.0
15:59:16,-3175.0,360.0,310.0
15:59:16,-3175.0,360.0,310.0
15:59:16,-3276.0,357.0,310.0
15:59:16,-3276.0,357.0,310.0
15:59:16,-3276.0,357.0,310.0
15:59:16,-3276.0,357.0,310.0
15:59:16,-3366.0,359.0,311.0
15:59:16,-3366.0,359.0,311.0
15:59:16,-3366.0,359.0,311.0
15:59:16,-3366.0,359.0,311.0
15:59:16,-3403.0,358.0,308.0
15:59:16,-3403.0,358.0,308.0
15:59:16,-3403.0,358.0,308.0
15:59:16,-3403.0,358.0,308.0
15:59:16,-3449.0,358.0,309.0
15:59:16,-3449.0,358.0,309.0
15:59:16,-3449.0,358.0,309.0
15:59:16,-3449.0,358.0,309.0
15:59:16,-3433.0,357.0,310.0
15:59:16,-3433.0,357.0,310.0
15:59:16,-3433.0,357.0,310.0
15:59:16,-3433.0,357.0,310.0
15:59:16,-3383.0,358.0,308.0
15:59:16,-3383.0,358.0,308.0
15:59:16,-3383.0,358.0,308.0
15:59:16,-3383.0,358.0,308.0
15:59:16,-3392.0,357.0,310.0
15:59:16,-3392.0,357.0,310.0
15:59:16,-3392.0,357.0,310.0
15:59:16,-3392.0,357.0,310.0
15:59:16,-3380.0,360.0,308.0
15:59:16,-3380.0,360.0,308.0
15:59:16,-3380.0,360.0,308.0
15:59:16,-3380.0,360.0,308.0
15:59:16,-3327.0,359.0,309.0
15:59:16,-3327.0,359.0,309.0
15:59:16,-3327.0,359.0,309.0
15:59:16,-3327.0,359.0,309.0
15:59:16,-3352.0,357.0,308.0
15:59:16,-3352.0,357.0,308.0
15:59:16,-3352.0,357.0,308.0
15:59:16,-3352.0,357.0,308.0
15:59:16,-3296.0,358.0,309.0
15:59:16,-3296.0,358.0,309.0
15:59:16,-3296.0,358.0,309.0
15:59:16,-3296.0,358.0,309.0
15:59:16,-3318.0,357.0,310.0
15:59:16,-3318.0,357.0,310.0
15:59:16,-3318.0,357.0,310.0
15:59:16,-3318.0,357.0,310.0
15:59:16,-3326.0,357.0,310.0
15:59:16,-3326.0,357.0,310.0
15:59:16,-3326.0,357.0,310.0
15:59:16,-3326.0,357.0,310.0
15:59:16,-3296.0,356.0,310.0
15:59:16,-3296.0,356.0,310.0
15:59:16,-3296.0,356.0,310.0
15:59:16,-3296.0,356.0,310.0
15:59:16,-3250.0,359.0,308.0
15:59:16,-3250.0,359.0,308.0
15:59:16,-3250.0,359.0,308.0
15:59:16,-3250.0,359.0,308.0
15:59:16,-3344.0,358.0,310.0
15:59:17,-3344.0,358.0,310.0
15:59:17,-3344.0,358.0,310.0
15:59:17,-3344.0,358.0,310.0
15:59:17,-3291.0,359.0,310.0
15:59:17,-3291.0,359.0,310.0
15:59:17,-3291.0,359.0,310.0
15:59:17,-3291.0,359.0,310.0
15:59:17,-3283.0,358.0,310.0
15:59:17,-3283.0,358.0,310.0
15:59:17,-3283.0,358.0,310.0
15:59:17,-3283.0,358.0,310.0
15:59:17,-3245.0,357.0,309.0
15:59:17,-3245.0,357.0,309.0
15:59:17,-3245.0,357.0,309.0
15:59:17,-3245.0,357.0,309.0
15:59:17,-3265.0,358.0,309.0
15:59:17,-3265.0,358.0,309.0
15:59:17,-3265.0,358.0,309.0
15:59:17,-3265.0,358.0,309.0
15:59:17,-3237.0,360.0,308.0
15:59:17,-3237.0,360.0,308.0
15:59:17,-3237.0,360.0,308.0
15:59:17,-3237.0,360.0,308.0
15:59:17,-3264.0,358.0,309.0
15:59:17,-3264.0,358.0,309.0
15:59:17,-3264.0,358.0,309.0
15:59:17,-3264.0,358.0,309.0
15:59:17,-3194.0,359.0,310.0
15:59:17,-3194.0,359.0,310.0
15:59:17,-3194.0,359.0,310.0
15:59:17,-3194.0,359.0,310.0
15:59:17,-3257.0,358.0,310.0
15:59:17,-3257.0,358.0,310.0
15:59:17,-3257.0,358.0,310.0
15:59:17,-3257.0,358.0,310.0
15:59:17,-3214.0,358.0,310.0
15:59:17,-3214.0,358.0,310.0
15:59:17,-3214.0,358.0,310.0
15:59:17,-3214.0,358.0,310.0
15:59:17,-3199.0,359.0,310.0
15:59:17,-3199.0,359.0,310.0
15:59:17,-3199.0,359.0,310.0
15:59:17,-3199.0,359.0,310.0
15:59:17,-3198.0,357.0,311.0
15:59:17,-3198.0,357.0,311.0
15:59:17,-3198.0,357.0,311.0
15:59:17,-3198.0,357.0,311.0
15:59:17,-3111.0,359.0,309.0
15:59:17,-3111.0,359.0,309.0
15:59:17,-3111.0,359.0,309.0
15:59:17,-3111.0,359.0,309.0
15:59:17,-3088.0,360.0,311.0
15:59:17,-3088.0,360.0,311.0
15:59:17,-3088.0,360.0,311.0
15:59:17,-3088.0,360.0,311.0
15:59:17,-3093.0,358.0,310.0
15:59:17,-3093.0,358.0,310.0
15:59:17,-3093.0,358.0,310.0
15:59:17,-3093.0,358.0,310.0
15:59:17,-3210.0,357.0,311.0
15:59:17,-3210.0,357.0,311.0
15:59:17,-3210.0,357.0,311.0
15:59:17,-3210.0,357.0,311.0
15:59:17,-3173.0,360.0,310.0
15:59:17,-3173.0,360.0,310.0
15:59:17,-3173.0,360.0,310.0
15:59:17,-3173.0,360.0,310.0
15:59:17,-3104.0,359.0,309.0
15:59:17,-3104.0,359.0,309.0
15:59:17,-3104.0,359.0,309.0
15:59:17,-3104.0,359.0,309.0
15:59:17,-2141.0,359.0,310.0
15:59:17,-2141.0,359.0,310.0
15:59:17,-2141.0,359.0,310.0
15:59:17,-2141.0,359.0,310.0
15:59:17,-2883.0,358.0,310.0
15:59:17,-2883.0,358.0,310.0
15:59:17,-2883.0,358.0,310.0
15:59:17,-2883.0,358.0,310.0
15:59:17,-3118.0,357.0,310.0
15:59:17,-3118.0,357.0,310.0
15:59:17,-3118.0,357.0,310.0
15:59:17,-3118.0,357.0,310.0
15:59:17,-3199.0,358.0,311.0
15:59:17,-3199.0,358.0,311.0
15:59:17,-3199.0,358.0,311.0
15:59:17,-3199.0,358.0,311.0
15:59:17,-3167.0,357.0,309.0
15:59:17,-3167.0,357.0,309.0
15:59:17,-3167.0,357.0,309.0
15:59:17,-3167.0,357.0,309.0
15:59:17,-3141.0,358.0,310.0
15:59:17,-3141.0,358.0,310.0
15:59:17,-3141.0,358.0,310.0
15:59:17,-3141.0,358.0,310.0
15:59:17,-3108.0,359.0,309.0
15:59:17,-3108.0,359.0,309.0
15:59:17,-3108.0,359.0,309.0
15:59:17,-3108.0,359.0,309.0
15:59:17,-3076.0,356.0,310.0
15:59:17,-3076.0,356.0,310.0
15:59:17,-3076.0,356.0,310.0
15:59:17,-3076.0,356.0,310.0
15:59:17,-3047.0,358.0,310.0
15:59:17,-3047.0,358.0,310.0
15:59:17,-3047.0,358.0,310.0
15:59:17,-3047.0,358.0,310.0
15:59:17,-2892.0,358.0,309.0
15:59:17,-2892.0,358.0,309.0
15:59:17,-2892.0,358.0,309.0
15:59:17,-2892.0,358.0,309.0
15:59:17,-2885.0,358.0,309.0
15:59:17,-2885.0,358.0,309.0
15:59:17,-2885.0,358.0,309.0
15:59:17,-2885.0,358.0,309.0
15:59:17,-2841.0,359.0,308.0
15:59:17,-2841.0,359.0,308.0
15:59:17,-2841.0,359.0,308.0
15:59:17,-2841.0,359.0,308.0
15:59:17,-2803.0,357.0,309.0
15:59:17,-2803.0,357.0,309.0
15:59:17,-2803.0,357.0,309.0
15:59:17,-2803.0,357.0,309.0
15:59:17,-2934.0,360.0,310.0
15:59:17,-2934.0,360.0,310.0
15:59:17,-2934.0,360.0,310.0
15:59:17,-2934.0,360.0,310.0
15:59:17,-3008.0,358.0,309.0
15:59:17,-3008.0,358.0,309.0
15:59:17,-3008.0,358.0,309.0
15:59:17,-3008.0,358.0,309.0
15:59:17,-3077.0,357.0,310.0
15:59:17,-3077.0,357.0,310.0
15:59:17,-3077.0,357.0,310.0
15:59:17,-3077.0,357.0,310.0
15:59:17,-3070.0,358.0,308.0
15:59:17,-3070.0,358.0,308.0
15:59:17,-3070.0,358.0,308.0
15:59:17,-3070.0,358.0,308.0
15:59:17,-3070.0,358.0,309.0
15:59:17,-3070.0,358.0,309.0
15:59:17,-3070.0,358.0,309.0
15:59:17,-3070.0,358.0,309.0
15:59:17,-2994.0,358.0,310.0
15:59:17,-2994.0,358.0,310.0
15:59:17,-2994.0,358.0,310.0
15:59:17,-2994.0,358.0,310.0
15:59:17,-3039.0,356.0,309.0
15:59:17,-3039.0,356.0,309.0
15:59:17,-3039.0,356.0,309.0
15:59:17,-3039.0,356.0,309.0
15:59:17,-2952.0,358.0,310.0
15:59:17,-2952.0,358.0,310.0
15:59:17,-2952.0,358.0,310.0
15:59:17,-2952.0,358.0,310.0
15:59:17,-2991.0,357.0,309.0
15:59:17,-2991.0,357.0,309.0
15:59:17,-2991.0,357.0,309.0
15:59:17,-2991.0,357.0,309.0
15:59:17,-2968.0,358.0,308.0
15:59:17,-2968.0,358.0,308.0
15:59:17,-2968.0,358.0,308.0
15:59:17,-2968.0,358.0,308.0
15:59:17,-2939.0,357.0,310.0
15:59:17,-2939.0,357.0,310.0
15:59:17,-2939.0,357.0,310.0
15:59:17,-2939.0,357.0,310.0
15:59:17,-2933.0,357.0,308.0
15:59:17,-2933.0,357.0,308.0
15:59:17,-2933.0,357.0,308.0
15:59:17,-2933.0,357.0,308.0
15:59:17,-2945.0,357.0,310.0
15:59:17,-2945.0,357.0,310.0
15:59:17,-2945.0,357.0,310.0
15:59:17,-2945.0,357.0,310.0
15:59:17,-2951.0,357.0,309.0
15:59:17,-2951.0,357.0,309.0
15:59:17,-2951.0,357.0,309.0
15:59:17,-2951.0,357.0,309.0
15:59:17,-2919.0,359.0,310.0
15:59:17,-2919.0,359.0,310.0
15:59:17,-2919.0,359.0,310.0
15:59:17,-2919.0,359.0,310.0
15:59:17,-2916.0,357.0,310.0
15:59:17,-2916.0,357.0,310.0
15:59:17,-2916.0,357.0,310.0
15:59:17,-2916.0,357.0,310.0
15:59:17,-2889.0,356.0,310.0
15:59:17,-2889.0,356.0,310.0
15:59:17,-2889.0,356.0,310.0
15:59:17,-2889.0,356.0,310.0
15:59:17,-2882.0,357.0,309.0
15:59:17,-2882.0,357.0,309.0
15:59:17,-2882.0,357.0,309.0
15:59:17,-2882.0,357.0,309.0
15:59:17,-2895.0,358.0,308.0
15:59:17,-2895.0,358.0,308.0
15:59:17,-2895.0,358.0,308.0
15:59:17,-2895.0,358.0,308.0
15:59:17,-2885.0,358.0,309.0
15:59:17,-2885.0,358.0,309.0
15:59:18,-2885.0,358.0,309.0
15:59:18,-2885.0,358.0,309.0
15:59:18,-2832.0,357.0,309.0
15:59:18,-2832.0,357.0,309.0
15:59:18,-2832.0,357.0,309.0
15:59:18,-2832.0,357.0,309.0
15:59:18,-2833.0,357.0,308.0
15:59:18,-2833.0,357.0,308.0
15:59:18,-2833.0,357.0,308.0
15:59:18,-2833.0,357.0,308.0
15:59:18,-2856.0,357.0,308.0
15:59:18,-2856.0,357.0,308.0
15:59:18,-2856.0,357.0,308.0
15:59:18,-2856.0,357.0,308.0
15:59:18,-2845.0,358.0,309.0
15:59:18,-2845.0,358.0,309.0
15:59:18,-2845.0,358.0,309.0
15:59:18,-2845.0,358.0,309.0
15:59:18,-2786.0,358.0,308.0
15:59:18,-2786.0,358.0,308.0
15:59:18,-2786.0,358.0,308.0
15:59:18,-2786.0,358.0,308.0
15:59:18,-2823.0,358.0,308.0
15:59:18,-2823.0,358.0,308.0
15:59:18,-2823.0,358.0,308.0
15:59:18,-2823.0,358.0,308.0
15:59:18,-2798.0,358.0,309.0
15:59:18,-2798.0,358.0,309.0
15:59:18,-2798.0,358.0,309.0
15:59:18,-2798.0,358.0,309.0
15:59:18,-2705.0,358.0,308.0
15:59:18,-2705.0,358.0,308.0
15:59:18,-2705.0,358.0,308.0
15:59:18,-2705.0,358.0,308.0
15:59:18,-2728.0,357.0,310.0
15:59:18,-2728.0,357.0,310.0
15:59:18,-2728.0,357.0,310.0
15:59:18,-2728.0,357.0,310.0
15:59:18,-2716.0,358.0,309.0
15:59:18,-2716.0,358.0,309.0
15:59:18,-2716.0,358.0,309.0
15:59:18,-2716.0,358.0,309.0
15:59:18,-2836.0,357.0,308.0
15:59:18,-2836.0,357.0,308.0
15:59:18,-2836.0,357.0,308.0
15:59:18,-2836.0,357.0,308.0
15:59:18,-2811.0,358.0,309.0
15:59:18,-2811.0,358.0,309.0
15:59:18,-2811.0,358.0,309.0
15:59:18,-2811.0,358.0,309.0
15:59:18,-2663.0,357.0,310.0
15:59:18,-2663.0,357.0,310.0
15:59:18,-2663.0,357.0,310.0
15:59:18,-2663.0,357.0,310.0
15:59:18,-1773.0,357.0,309.0
15:59:18,-1773.0,357.0,309.0
15:59:18,-1773.0,357.0,309.0
15:59:18,-1773.0,357.0,309.0
15:59:18,-2483.0,358.0,310.0
15:59:18,-2483.0,358.0,310.0
15:59:18,-2483.0,358.0,310.0
15:59:18,-2483.0,358.0,310.0
15:59:18,-2785.0,357.0,309.0
15:59:18,-2785.0,357.0,309.0
15:59:18,-2785.0,357.0,309.0
15:59:18,-2785.0,357.0,309.0
15:59:18,-2785.0,357.0,310.0
15:59:18,-2785.0,357.0,310.0
15:59:18,-2785.0,357.0,310.0
15:59:18,-2785.0,357.0,310.0
15:59:18,-2788.0,358.0,309.0
15:59:18,-2788.0,358.0,309.0
15:59:18,-2788.0,358.0,309.0
15:59:18,-2788.0,358.0,309.0
15:59:18,-2791.0,358.0,310.0
15:59:18,-2791.0,358.0,310.0
15:59:18,-2791.0,358.0,310.0
15:59:18,-2791.0,358.0,310.0
15:59:18,-2702.0,358.0,309.0
15:59:18,-2702.0,358.0,309.0
15:59:18,-2702.0,358.0,309.0
15:59:18,-2702.0,358.0,309.0
15:59:18,-2674.0,357.0,309.0
15:59:18,-2674.0,357.0,309.0
15:59:18,-2674.0,357.0,309.0
15:59:18,-2674.0,357.0,309.0
15:59:18,-2616.0,358.0,311.0
15:59:18,-2616.0,358.0,311.0
15:59:18,-2616.0,358.0,311.0
15:59:18,-2616.0,358.0,311.0
15:59:18,-2576.0,358.0,310.0
15:59:18,-2576.0,358.0,310.0
15:59:18,-2576.0,358.0,310.0
15:59:18,-2576.0,358.0,310.0
15:59:18,-2476.0,358.0,310.0
15:59:18,-2476.0,358.0,310.0
15:59:18,-2476.0,358.0,310.0
15:59:18,-2476.0,358.0,310.0
15:59:18,-2442.0,358.0,310.0
15:59:18,-2442.0,358.0,310.0
15:59:18,-2442.0,358.0,310.0
15:59:18,-2442.0,358.0,310.0
15:59:18,-2435.0,358.0,310.0
15:59:18,-2435.0,358.0,310.0
15:59:18,-2435.0,358.0,310.0
15:59:18,-2435.0,358.0,310.0
15:59:18,-2537.0,358.0,310.0
15:59:18,-2537.0,358.0,310.0
15:59:18,-2537.0,358.0,310.0
15:59:18,-2537.0,358.0,310.0
15:59:18,-2635.0,358.0,309.0
15:59:18,-2635.0,358.0,309.0
15:59:18,-2635.0,358.0,309.0
15:59:18,-2635.0,358.0,309.0
15:59:18,-2714.0,358.0,311.0
15:59:18,-2714.0,358.0,311.0
15:59:18,-2714.0,358.0,311.0
15:59:18,-2714.0,358.0,311.0
15:59:18,-2656.0,360.0,310.0
15:59:18,-2656.0,360.0,310.0
15:59:18,-2656.0,360.0,310.0
15:59:18,-2656.0,360.0,310.0
15:59:18,-2686.0,358.0,310.0
15:59:18,-2686.0,358.0,310.0
15:59:18,-2686.0,358.0,310.0
15:59:18,-2686.0,358.0,310.0
15:59:18,-2669.0,358.0,309.0
15:59:18,-2669.0,358.0,309.0
15:59:18,-2669.0,358.0,309.0
15:59:18,-2669.0,358.0,309.0
15:59:18,-2688.0,357.0,309.0
15:59:18,-2688.0,357.0,309.0
15:59:18,-2688.0,357.0,309.0
15:59:18,-2688.0,357.0,309.0
15:59:18,-2673.0,358.0,308.0
15:59:18,-2673.0,358.0,308.0
15:59:18,-2673.0,358.0,308.0
15:59:18,-2673.0,358.0,308.0
15:59:18,-2623.0,356.0,309.0
15:59:18,-2623.0,356.0,309.0
15:59:18,-2623.0,356.0,309.0
15:59:18,-2623.0,356.0,309.0
15:59:18,-2592.0,357.0,309.0
15:59:18,-2592.0,357.0,309.0
15:59:18,-2592.0,357.0,309.0
15:59:18,-2592.0,357.0,309.0
15:59:18,-2605.0,357.0,309.0
15:59:18,-2605.0,357.0,309.0
15:59:18,-2605.0,357.0,309.0
15:59:18,-2605.0,357.0,309.0
15:59:18,-2607.0,357.0,310.0
15:59:18,-2607.0,357.0,310.0
15:59:18,-2607.0,357.0,310.0
15:59:18,-2607.0,357.0,310.0
15:59:18,-2623.0,358.0,309.0
15:59:18,-2623.0,358.0,309.0
15:59:18,-2623.0,358.0,309.0
15:59:18,-2623.0,358.0,309.0
15:59:18,-2631.0,358.0,309.0
15:59:18,-2631.0,358.0,309.0
15:59:18,-2631.0,358.0,309.0
15:59:18,-2631.0,358.0,309.0
15:59:18,-2617.0,358.0,309.0
15:59:18,-2617.0,358.0,309.0
15:59:18,-2617.0,358.0,309.0
15:59:18,-2617.0,358.0,309.0
15:59:18,-2620.0,357.0,310.0
15:59:18,-2620.0,357.0,310.0
15:59:18,-2620.0,357.0,310.0
15:59:18,-2620.0,357.0,310.0
15:59:18,-2604.0,358.0,310.0
15:59:18,-2604.0,358.0,310.0
15:59:18,-2604.0,358.0,310.0
15:59:18,-2604.0,358.0,310.0
15:59:18,-2614.0,358.0,310.0
15:59:18,-2614.0,358.0,310.0
15:59:18,-2614.0,358.0,310.0
15:59:18,-2614.0,358.0,310.0
15:59:18,-2600.0,357.0,310.0
15:59:18,-2600.0,357.0,310.0
15:59:18,-2600.0,357.0,310.0
15:59:18,-2600.0,357.0,310.0
15:59:18,-2621.0,357.0,310.0
15:59:18,-2621.0,357.0,310.0
15:59:18,-2621.0,357.0,310.0
15:59:18,-2621.0,357.0,310.0
15:59:18,-2631.0,357.0,309.0
15:59:18,-2631.0,357.0,309.0
15:59:18,-2631.0,357.0,309.0
15:59:18,-2631.0,357.0,309.0
15:59:18,-2562.0,358.0,307.0
15:59:18,-2562.0,358.0,307.0
15:59:18,-2562.0,358.0,307.0
15:59:18,-2562.0,358.0,307.0
15:59:18,-2601.0,357.0,308.0
15:59:18,-2601.0,357.0,308.0
15:59:18,-2601.0,357.0,308.0
15:59:18,-2601.0,357.0,308.0
15:59:18,-2628.0,358.0,309.0
15:59:18,-2628.0,358.0,309.0
15:59:18,-2628.0,358.0,309.0
15:59:19,-2628.0,358.0,309.0
15:59:19,-2598.0,358.0,309.0
15:59:19,-2598.0,358.0,309.0
15:59:19,-2598.0,358.0,309.0
15:59:19,-2598.0,358.0,309.0
15:59:19,-2560.0,358.0,307.0
15:59:19,-2560.0,358.0,307.0
15:59:19,-2560.0,358.0,307.0
15:59:19,-2560.0,358.0,307.0
15:59:19,-2549.0,357.0,309.0
15:59:19,-2549.0,357.0,309.0
15:59:19,-2549.0,357.0,309.0
15:59:19,-2549.0,357.0,309.0
15:59:19,-2523.0,357.0,309.0
15:59:19,-2523.0,357.0,309.0
15:59:19,-2523.0,357.0,309.0
15:59:19,-2523.0,357.0,309.0
15:59:19,-2524.0,359.0,310.0
15:59:19,-2524.0,359.0,310.0
15:59:19,-2524.0,359.0,310.0
15:59:19,-2524.0,359.0,310.0
15:59:19,-2603.0,360.0,310.0
15:59:19,-2603.0,360.0,310.0
15:59:19,-2603.0,360.0,310.0
15:59:19,-2603.0,360.0,310.0
15:59:19,-2645.0,357.0,310.0
15:59:19,-2645.0,357.0,310.0
15:59:19,-2645.0,357.0,310.0
15:59:19,-2645.0,357.0,310.0
15:59:19,-2698.0,357.0,310.0
15:59:19,-2698.0,357.0,310.0
15:59:19,-2698.0,357.0,310.0
15:59:19,-2698.0,357.0,310.0
15:59:19,-1909.0,358.0,310.0
15:59:19,-1909.0,358.0,310.0
15:59:19,-1909.0,358.0,310.0
15:59:19,-1909.0,358.0,310.0
15:59:19,-1973.0,358.0,310.0
15:59:19,-1973.0,358.0,310.0
15:59:19,-1973.0,358.0,310.0
15:59:19,-1973.0,358.0,310.0
15:59:19,-2623.0,358.0,310.0
15:59:19,-2623.0,358.0,310.0
15:59:19,-2623.0,358.0,310.0
15:59:19,-2623.0,358.0,310.0
15:59:19,-2660.0,358.0,309.0
15:59:19,-2660.0,358.0,309.0
15:59:19,-2660.0,358.0,309.0
15:59:19,-2660.0,358.0,309.0
15:59:19,-2671.0,358.0,310.0
15:59:19,-2671.0,358.0,310.0
15:59:19,-2671.0,358.0,310.0
15:59:19,-2671.0,358.0,310.0
15:59:19,-2677.0,357.0,310.0
15:59:19,-2677.0,357.0,310.0
15:59:19,-2677.0,357.0,310.0
15:59:19,-2677.0,357.0,310.0
15:59:19,-2667.0,357.0,309.0
15:59:19,-2667.0,357.0,309.0
15:59:19,-2667.0,357.0,309.0
15:59:19,-2667.0,357.0,309.0
15:59:19,-2627.0,358.0,310.0
15:59:19,-2627.0,358.0,310.0
15:59:19,-2627.0,358.0,310.0
15:59:19,-2627.0,358.0,310.0
15:59:19,-2641.0,359.0,309.0
15:59:19,-2641.0,359.0,309.0
15:59:19,-2641.0,359.0,309.0
15:59:19,-2641.0,359.0,309.0
15:59:19,-2570.0,357.0,310.0
15:59:19,-2570.0,357.0,310.0
15:59:19,-2570.0,357.0,310.0
15:59:19,-2570.0,357.0,310.0
15:59:19,-2542.0,359.0,309.0
15:59:19,-2542.0,359.0,309.0
15:59:19,-2542.0,359.0,309.0
15:59:19,-2542.0,359.0,309.0
15:59:19,-2402.0,358.0,311.0
15:59:19,-2402.0,358.0,311.0
15:59:19,-2402.0,358.0,311.0
15:59:19,-2402.0,358.0,311.0
15:59:19,-2478.0,357.0,309.0
15:59:19,-2478.0,357.0,309.0
15:59:19,-2478.0,357.0,309.0
15:59:19,-2478.0,357.0,309.0
15:59:19,-2487.0,358.0,310.0
15:59:19,-2487.0,358.0,310.0
15:59:19,-2487.0,358.0,310.0
15:59:19,-2487.0,358.0,310.0
15:59:19,-2629.0,359.0,309.0
15:59:19,-2629.0,359.0,309.0
15:59:19,-2629.0,359.0,309.0
15:59:19,-2629.0,359.0,309.0
15:59:19,-2754.0,358.0,309.0
15:59:19,-2754.0,358.0,309.0
15:59:19,-2754.0,358.0,309.0
15:59:19,-2754.0,358.0,309.0
15:59:19,-2781.0,357.0,311.0
15:59:19,-2781.0,357.0,311.0
15:59:19,-2781.0,357.0,311.0
15:59:19,-2781.0,357.0,311.0
15:59:19,-2794.0,359.0,310.0
15:59:19,-2794.0,359.0,310.0
15:59:19,-2794.0,359.0,310.0
15:59:19,-2794.0,359.0,310.0
15:59:19,-2800.0,357.0,311.0
15:59:19,-2800.0,357.0,311.0
15:59:19,-2800.0,357.0,311.0
15:59:19,-2800.0,357.0,311.0
15:59:19,-2791.0,359.0,310.0
15:59:19,-2791.0,359.0,310.0
15:59:19,-2791.0,359.0,310.0
15:59:19,-2791.0,359.0,310.0
15:59:19,-2789.0,357.0,309.0
15:59:19,-2789.0,357.0,309.0
15:59:19,-2789.0,357.0,309.0
15:59:19,-2789.0,357.0,309.0
15:59:19,-2797.0,358.0,310.0
15:59:19,-2797.0,358.0,310.0
15:59:19,-2797.0,358.0,310.0
15:59:19,-2797.0,358.0,310.0
15:59:19,-2807.0,358.0,310.0
15:59:19,-2807.0,358.0,310.0
15:59:19,-2807.0,358.0,310.0
15:59:19,-2807.0,358.0,310.0
15:59:19,-2793.0,358.0,309.0
15:59:19,-2793.0,358.0,309.0
15:59:19,-2793.0,358.0,309.0
15:59:19,-2793.0,358.0,309.0
15:59:19,-2830.0,358.0,310.0
15:59:19,-2830.0,358.0,310.0
15:59:19,-2830.0,358.0,310.0
15:59:19,-2830.0,358.0,310.0
15:59:19,-2839.0,358.0,311.0
15:59:19,-2839.0,358.0,311.0
15:59:19,-2839.0,358.0,311.0
15:59:19,-2839.0,358.0,311.0
15:59:19,-2888.0,359.0,308.0
15:59:19,-2888.0,359.0,308.0
15:59:19,-2888.0,359.0,308.0
15:59:19,-2888.0,359.0,308.0
15:59:19,-2881.0,357.0,309.0
15:59:19,-2881.0,357.0,309.0
15:59:19,-2881.0,357.0,309.0
15:59:19,-2881.0,357.0,309.0
15:59:19,-2901.0,357.0,308.0
15:59:19,-2901.0,357.0,308.0
15:59:19,-2901.0,357.0,308.0
15:59:19,-2901.0,357.0,308.0
15:59:19,-2933.0,358.0,308.0
15:59:19,-2933.0,358.0,308.0
15:59:19,-2933.0,358.0,308.0
15:59:19,-2933.0,358.0,308.0
15:59:19,-2952.0,358.0,308.0
15:59:19,-2952.0,358.0,308.0
15:59:19,-2952.0,358.0,308.0
15:59:19,-2952.0,358.0,308.0
15:59:19,-2945.0,356.0,310.0
15:59:19,-2945.0,356.0,310.0
15:59:19,-2945.0,356.0,310.0
15:59:19,-2945.0,356.0,310.0
15:59:19,-2947.0,357.0,309.0
15:59:19,-2947.0,357.0,309.0
15:59:19,-2947.0,357.0,309.0
15:59:19,-2947.0,357.0,309.0
15:59:19,-2976.0,358.0,308.0
15:59:19,-2976.0,358.0,308.0
15:59:19,-2976.0,358.0,308.0
15:59:19,-2976.0,358.0,308.0
15:59:19,-3029.0,357.0,310.0
15:59:19,-3029.0,357.0,310.0
15:59:19,-3029.0,357.0,310.0
15:59:19,-3029.0,357.0,310.0
15:59:19,-3058.0,358.0,308.0
15:59:19,-3058.0,358.0,308.0
15:59:19,-3058.0,358.0,308.0
15:59:19,-3058.0,358.0,308.0
15:59:19,-3029.0,357.0,310.0
15:59:19,-3029.0,357.0,310.0
15:59:19,-3029.0,357.0,310.0
15:59:19,-3029.0,357.0,310.0
15:59:19,-3051.0,357.0,309.0
15:59:19,-3051.0,357.0,309.0
15:59:19,-3051.0,357.0,309.0
15:59:19,-3051.0,357.0,309.0
15:59:19,-3059.0,357.0,310.0
15:59:19,-3059.0,357.0,310.0
15:59:19,-3059.0,357.0,310.0
15:59:19,-3059.0,357.0,310.0
15:59:19,-3054.0,357.0,310.0
15:59:19,-3054.0,357.0,310.0
15:59:19,-3054.0,357.0,310.0
15:59:19,-3054.0,357.0,310.0
15:59:19,-3041.0,359.0,311.0
15:59:19,-3041.0,359.0,311.0
15:59:19,-3041.0,359.0,311.0
15:59:19,-3041.0,359.0,311.0
15:59:19,-3069.0,357.0,310.0
15:59:19,-3069.0,357.0,310.0
15:59:19,-3069.0,357.0,310.0
15:59:19,-3069.0,357.0,310.0
15:59:20,-3201.0,357.0,309.0
15:59:20,-3201.0,357.0,309.0
15:59:20,-3201.0,357.0,309.0
15:59:20,-3201.0,357.0,309.0
15:59:20,-3181.0,358.0,308.0
15:59:20,-3181.0,358.0,308.0
15:59:20,-3181.0,358.0,308.0
15:59:20,-3181.0,358.0,308.0
15:59:20,-3186.0,356.0,309.0
15:59:20,-3186.0,356.0,309.0
15:59:20,-3186.0,356.0,309.0
15:59:20,-3186.0,356.0,309.0
15:59:20,-2254.0,358.0,309.0
15:59:20,-2254.0,358.0,309.0
15:59:20,-2254.0,358.0,309.0
15:59:20,-2254.0,358.0,309.0
15:59:20,-2716.0,358.0,309.0
15:59:20,-2716.0,358.0,309.0
15:59:20,-2716.0,358.0,309.0
15:59:20,-2716.0,358.0,309.0
15:59:20,-3273.0,358.0,309.0
15:59:20,-3273.0,358.0,309.0
15:59:20,-3273.0,358.0,309.0
15:59:20,-3273.0,358.0,309.0
15:59:20,-3286.0,357.0,309.0
15:59:20,-3286.0,357.0,309.0
15:59:20,-3286.0,357.0,309.0
15:59:20,-3286.0,357.0,309.0
15:59:20,-3306.0,358.0,310.0
15:59:20,-3306.0,358.0,310.0
15:59:20,-3306.0,358.0,310.0
15:59:20,-3306.0,358.0,310.0
15:59:20,-3251.0,357.0,308.0
15:59:20,-3251.0,357.0,308.0
15:59:20,-3251.0,357.0,308.0
15:59:20,-3251.0,357.0,308.0
15:59:20,-3295.0,358.0,309.0
15:59:20,-3295.0,358.0,309.0
15:59:20,-3295.0,358.0,309.0
15:59:20,-3295.0,358.0,309.0
15:59:20,-3266.0,357.0,309.0
15:59:20,-3266.0,357.0,309.0
15:59:20,-3266.0,357.0,309.0
15:59:20,-3266.0,357.0,309.0
15:59:20,-3246.0,358.0,309.0
15:59:20,-3246.0,358.0,309.0
15:59:20,-3246.0,358.0,309.0
15:59:20,-3246.0,358.0,309.0
15:59:20,-3194.0,357.0,309.0
15:59:20,-3194.0,357.0,309.0
15:59:20,-3194.0,357.0,309.0
15:59:20,-3194.0,357.0,309.0
15:59:20,-3095.0,358.0,309.0
15:59:20,-3095.0,358.0,309.0
15:59:20,-3095.0,358.0,309.0
15:59:20,-3095.0,358.0,309.0
15:59:20,-3081.0,356.0,308.0
15:59:20,-3081.0,356.0,308.0
15:59:20,-3081.0,356.0,308.0
15:59:20,-3081.0,356.0,308.0
15:59:20,-3038.0,358.0,310.0
15:59:20,-3038.0,358.0,310.0
15:59:20,-3038.0,358.0,310.0
15:59:20,-3038.0,358.0,310.0
15:59:20,-3158.0,358.0,309.0
15:59:20,-3158.0,358.0,309.0
15:59:20,-3158.0,358.0,309.0
15:59:20,-3158.0,358.0,309.0
15:59:20,-3296.0,358.0,309.0
15:59:20,-3296.0,358.0,309.0
15:59:20,-3296.0,358.0,309.0
15:59:20,-3296.0,358.0,309.0
15:59:20,-3379.0,358.0,309.0
15:59:20,-3379.0,358.0,309.0
15:59:20,-3379.0,358.0,309.0
15:59:20,-3379.0,358.0,309.0
15:59:20,-3396.0,357.0,309.0
15:59:20,-3396.0,357.0,309.0
15:59:20,-3396.0,357.0,309.0
15:59:20,-3396.0,357.0,309.0
15:59:20,-3402.0,357.0,308.0
15:59:20,-3402.0,357.0,308.0
15:59:20,-3402.0,357.0,308.0
15:59:20,-3402.0,357.0,308.0
15:59:20,-3413.0,358.0,308.0
15:59:20,-3413.0,358.0,308.0
15:59:20,-3413.0,358.0,308.0
15:59:20,-3413.0,358.0,308.0
15:59:20,-3370.0,357.0,308.0
15:59:20,-3370.0,357.0,308.0
15:59:20,-3370.0,357.0,308.0
15:59:20,-3370.0,357.0,308.0
15:59:20,-3378.0,357.0,309.0
15:59:20,-3378.0,357.0,309.0
15:59:20,-3378.0,357.0,309.0
15:59:20,-3378.0,357.0,309.0
15:59:20,-3355.0,357.0,309.0
15:59:20,-3355.0,357.0,309.0
15:59:20,-3355.0,357.0,309.0
15:59:20,-3355.0,357.0,309.0
15:59:20,-3353.0,357.0,309.0
15:59:20,-3353.0,357.0,309.0
15:59:20,-3353.0,357.0,309.0
15:59:20,-3353.0,357.0,309.0
15:59:20,-3349.0,357.0,308.0
15:59:20,-3349.0,357.0,308.0
15:59:20,-3349.0,357.0,308.0
15:59:20,-3349.0,357.0,308.0
15:59:20,-3369.0,357.0,308.0
15:59:20,-3369.0,357.0,308.0
15:59:20,-3369.0,357.0,308.0
15:59:20,-3369.0,357.0,308.0
15:59:20,-3372.0,358.0,309.0
15:59:20,-3372.0,358.0,309.0
15:59:20,-3372.0,358.0,309.0
15:59:20,-3372.0,358.0,309.0
15:59:20,-3327.0,357.0,310.0
15:59:20,-3327.0,357.0,310.0
15:59:20,-3327.0,357.0,310.0
15:59:20,-3327.0,357.0,310.0
15:59:20,-3364.0,357.0,310.0
