Mon Feb 02 18:17:21 IST 2026
TimeStamp,ECG,PPG
18:17:21,-470.0,260.0,225.0
18:17:21,-470.0,260.0,225.0
18:17:21,-470.0,260.0,225.0
18:17:21,-446.0,263.0,226.0
18:17:21,-446.0,263.0,226.0
18:17:21,-446.0,263.0,226.0
18:17:21,-446.0,263.0,226.0
18:17:21,-457.0,263.0,225.0
18:17:21,-457.0,263.0,225.0
18:17:21,-457.0,263.0,225.0
18:17:21,-457.0,263.0,225.0
18:17:21,-346.0,259.0,226.0
18:17:21,-346.0,259.0,226.0
18:17:21,-346.0,259.0,226.0
18:17:21,-346.0,259.0,226.0
18:17:21,-333.0,256.0,226.0
18:17:21,-333.0,256.0,226.0
18:17:21,-333.0,256.0,226.0
18:17:21,-333.0,256.0,226.0
18:17:21,-319.0,256.0,224.0
18:17:21,-319.0,256.0,224.0
18:17:21,-319.0,256.0,224.0
18:17:21,-319.0,256.0,224.0
18:17:21,-259.0,256.0,225.0
18:17:21,-259.0,256.0,225.0
18:17:21,-259.0,256.0,225.0
18:17:21,-259.0,256.0,225.0
18:17:21,-337.0,255.0,228.0
18:17:21,-337.0,255.0,228.0
18:17:21,-337.0,255.0,228.0
18:17:21,-337.0,255.0,228.0
18:17:21,-390.0,256.0,231.0
18:17:21,-390.0,256.0,231.0
18:17:21,-390.0,256.0,231.0
18:17:21,-390.0,256.0,231.0
18:17:21,-361.0,255.0,233.0
18:17:21,-361.0,255.0,233.0
18:17:21,-361.0,255.0,233.0
18:17:21,-361.0,255.0,233.0
18:17:21,-383.0,255.0,229.0
18:17:21,-383.0,255.0,229.0
18:17:21,-383.0,255.0,229.0
18:17:21,-383.0,255.0,229.0
18:17:21,-406.0,256.0,226.0
18:17:21,-406.0,256.0,226.0
18:17:21,-406.0,256.0,226.0
18:17:21,-406.0,256.0,226.0
18:17:21,-395.0,258.0,224.0
18:17:21,-395.0,258.0,224.0
18:17:21,-395.0,258.0,224.0
18:17:21,-395.0,258.0,224.0
18:17:21,-412.0,260.0,224.0
18:17:21,-412.0,260.0,224.0
18:17:21,-412.0,260.0,224.0
18:17:21,-412.0,260.0,224.0
18:17:21,-416.0,263.0,223.0
18:17:21,-416.0,263.0,223.0
18:17:21,-416.0,263.0,223.0
18:17:21,-416.0,263.0,223.0
18:17:21,-377.0,260.0,224.0
18:17:21,-377.0,260.0,224.0
18:17:21,-377.0,260.0,224.0
18:17:21,-377.0,260.0,224.0
18:17:21,-402.0,258.0,225.0
18:17:21,-402.0,258.0,225.0
18:17:21,-402.0,258.0,225.0
18:17:21,-402.0,258.0,225.0
18:17:21,-418.0,256.0,223.0
18:17:21,-418.0,256.0,223.0
18:17:21,-418.0,256.0,223.0
18:17:21,-418.0,256.0,223.0
18:17:21,-376.0,254.0,224.0
18:17:21,-376.0,254.0,224.0
18:17:21,-376.0,254.0,224.0
18:17:21,-376.0,254.0,224.0
18:17:21,-393.0,254.0,224.0
18:17:22,-393.0,254.0,224.0
18:17:22,-393.0,254.0,224.0
18:17:22,-393.0,254.0,224.0
18:17:22,-371.0,254.0,224.0
18:17:22,-371.0,254.0,224.0
18:17:22,-371.0,254.0,224.0
18:17:22,-371.0,254.0,224.0
18:17:22,-322.0,256.0,224.0
18:17:22,-322.0,256.0,224.0
18:17:22,-322.0,256.0,224.0
18:17:22,-322.0,256.0,224.0
18:17:22,-297.0,254.0,222.0
18:17:22,-297.0,254.0,222.0
18:17:22,-297.0,254.0,222.0
18:17:22,-297.0,254.0,222.0
18:17:22,-348.0,254.0,223.0
18:17:22,-348.0,254.0,223.0
18:17:22,-348.0,254.0,223.0
18:17:22,-348.0,254.0,223.0
18:17:22,-430.0,254.0,223.0
18:17:22,-430.0,254.0,223.0
18:17:22,-430.0,254.0,223.0
18:17:22,-430.0,254.0,223.0
18:17:22,-404.0,254.0,225.0
18:17:22,-404.0,254.0,225.0
18:17:22,-404.0,254.0,225.0
18:17:22,-404.0,254.0,225.0
18:17:22,-447.0,254.0,226.0
18:17:22,-447.0,254.0,226.0
18:17:22,-447.0,254.0,226.0
18:17:22,-447.0,254.0,226.0
18:17:22,-431.0,254.0,229.0
18:17:22,-431.0,254.0,229.0
18:17:22,-431.0,254.0,229.0
18:17:22,-431.0,254.0,229.0
18:17:22,-413.0,255.0,226.0
18:17:22,-413.0,255.0,226.0
18:17:22,-413.0,255.0,226.0
18:17:22,-413.0,255.0,226.0
18:17:22,1047.0,253.0,224.0
18:17:22,1047.0,253.0,224.0
18:17:22,1047.0,253.0,224.0
18:17:22,1047.0,253.0,224.0
18:17:22,-784.0,255.0,223.0
18:17:22,-784.0,255.0,223.0
18:17:22,-784.0,255.0,223.0
18:17:22,-784.0,255.0,223.0
18:17:22,-566.0,256.0,222.0
18:17:22,-566.0,256.0,222.0
18:17:22,-566.0,256.0,222.0
18:17:22,-566.0,256.0,222.0
18:17:22,-556.0,259.0,222.0
18:17:22,-556.0,259.0,222.0
18:17:22,-556.0,259.0,222.0
18:17:22,-556.0,259.0,222.0
18:17:22,-521.0,258.0,223.0
18:17:22,-521.0,258.0,223.0
18:17:22,-521.0,258.0,223.0
18:17:22,-521.0,258.0,223.0
18:17:22,-505.0,256.0,223.0
18:17:22,-505.0,256.0,223.0
18:17:22,-505.0,256.0,223.0
18:17:22,-505.0,256.0,223.0
18:17:22,-478.0,253.0,222.0
18:17:22,-478.0,253.0,222.0
18:17:22,-478.0,253.0,222.0
18:17:22,-478.0,253.0,222.0
18:17:22,-480.0,254.0,223.0
18:17:22,-480.0,254.0,223.0
18:17:22,-480.0,254.0,223.0
18:17:22,-480.0,254.0,223.0
18:17:22,-436.0,253.0,222.0
18:17:22,-436.0,253.0,222.0
18:17:22,-436.0,253.0,222.0
18:17:22,-436.0,253.0,222.0
18:17:22,-410.0,252.0,222.0
18:17:22,-410.0,252.0,222.0
18:17:22,-410.0,252.0,222.0
18:17:22,-410.0,252.0,222.0
18:17:22,-383.0,253.0,222.0
18:17:22,-383.0,253.0,222.0
18:17:22,-383.0,253.0,222.0
18:17:22,-383.0,253.0,222.0
18:17:22,-367.0,253.0,222.0
18:17:22,-367.0,253.0,222.0
18:17:22,-367.0,253.0,222.0
18:17:22,-367.0,253.0,222.0
18:17:22,-326.0,253.0,221.0
18:17:22,-326.0,253.0,221.0
18:17:22,-326.0,253.0,221.0
18:17:22,-326.0,253.0,221.0
18:17:22,-328.0,253.0,222.0
18:17:22,-328.0,253.0,222.0
18:17:22,-328.0,253.0,222.0
18:17:22,-328.0,253.0,222.0
18:17:22,-320.0,252.0,221.0
18:17:22,-320.0,252.0,221.0
18:17:22,-320.0,252.0,221.0
18:17:22,-320.0,252.0,221.0
18:17:22,-436.0,252.0,221.0
18:17:22,-436.0,252.0,221.0
18:17:22,-436.0,252.0,221.0
18:17:22,-436.0,252.0,221.0
18:17:22,-402.0,253.0,223.0
18:17:22,-402.0,253.0,223.0
18:17:22,-402.0,253.0,223.0
18:17:22,-402.0,253.0,223.0
18:17:22,-423.0,252.0,222.0
18:17:22,-423.0,252.0,222.0
18:17:22,-423.0,252.0,222.0
18:17:22,-423.0,252.0,222.0
18:17:22,-397.0,252.0,221.0
18:17:22,-397.0,252.0,221.0
18:17:22,-397.0,252.0,221.0
18:17:22,-397.0,252.0,221.0
18:17:22,-397.0,254.0,223.0
18:17:22,-397.0,254.0,223.0
18:17:22,-397.0,254.0,223.0
18:17:22,-397.0,254.0,223.0
18:17:22,-392.0,253.0,222.0
18:17:22,-392.0,253.0,222.0
18:17:22,-392.0,253.0,222.0
18:17:22,-392.0,253.0,222.0
18:17:22,-386.0,253.0,221.0
18:17:22,-386.0,253.0,221.0
18:17:22,-386.0,253.0,221.0
18:17:22,-386.0,253.0,221.0
18:17:22,-391.0,253.0,223.0
18:17:22,-391.0,253.0,223.0
18:17:22,-391.0,253.0,223.0
18:17:22,-391.0,253.0,223.0
18:17:22,-380.0,252.0,222.0
18:17:22,-380.0,252.0,222.0
18:17:22,-380.0,252.0,222.0
18:17:22,-380.0,252.0,222.0
18:17:22,-413.0,252.0,223.0
18:17:22,-413.0,252.0,223.0
18:17:22,-413.0,252.0,223.0
18:17:22,-413.0,252.0,223.0
18:17:22,-376.0,254.0,221.0
18:17:22,-376.0,254.0,221.0
18:17:22,-376.0,254.0,221.0
18:17:22,-376.0,254.0,221.0
18:17:22,-394.0,253.0,223.0
18:17:22,-394.0,253.0,223.0
18:17:22,-394.0,253.0,223.0
18:17:22,-394.0,253.0,223.0
18:17:22,-304.0,252.0,223.0
18:17:22,-304.0,252.0,223.0
18:17:22,-304.0,252.0,223.0
18:17:22,-304.0,252.0,223.0
18:17:22,-277.0,253.0,222.0
18:17:22,-277.0,253.0,222.0
18:17:22,-277.0,253.0,222.0
18:17:22,-277.0,253.0,222.0
18:17:22,-264.0,253.0,223.0
18:17:22,-264.0,253.0,223.0
18:17:22,-264.0,253.0,223.0
18:17:22,-264.0,253.0,223.0
18:17:22,-354.0,251.0,223.0
18:17:22,-354.0,251.0,223.0
18:17:22,-354.0,251.0,223.0
18:17:22,-354.0,251.0,223.0
18:17:22,-412.0,254.0,220.0
18:17:22,-412.0,254.0,220.0
18:17:22,-412.0,254.0,220.0
18:17:22,-412.0,254.0,220.0
18:17:22,-426.0,253.0,224.0
18:17:22,-426.0,253.0,224.0
18:17:22,-426.0,253.0,224.0
18:17:22,-426.0,253.0,224.0
18:17:22,-439.0,253.0,222.0
18:17:22,-439.0,253.0,222.0
18:17:22,-439.0,253.0,222.0
18:17:22,-439.0,253.0,222.0
18:17:22,-426.0,254.0,219.0
18:17:22,-426.0,254.0,219.0
18:17:22,-426.0,254.0,219.0
18:17:22,-426.0,254.0,219.0
18:17:22,-454.0,253.0,218.0
18:17:22,-454.0,253.0,218.0
18:17:22,-454.0,253.0,218.0
18:17:22,-454.0,253.0,218.0
18:17:22,1085.0,252.0,218.0
18:17:22,1085.0,252.0,218.0
18:17:22,1085.0,252.0,218.0
18:17:22,1085.0,252.0,218.0
18:17:22,-755.0,253.0,219.0
18:17:22,-755.0,253.0,219.0
18:17:22,-755.0,253.0,219.0
18:17:22,-755.0,253.0,219.0
18:17:22,-597.0,253.0,221.0
18:17:22,-597.0,253.0,221.0
18:17:22,-597.0,253.0,221.0
18:17:22,-597.0,253.0,221.0
18:17:22,-575.0,250.0,222.0
18:17:22,-575.0,250.0,222.0
18:17:22,-575.0,250.0,222.0
18:17:22,-575.0,250.0,222.0
18:17:22,-545.0,251.0,224.0
18:17:22,-545.0,251.0,224.0
18:17:23,-545.0,251.0,224.0
18:17:23,-545.0,251.0,224.0
18:17:23,-541.0,248.0,222.0
18:17:23,-541.0,248.0,222.0
18:17:23,-541.0,248.0,222.0
18:17:23,-541.0,248.0,222.0
18:17:23,-501.0,250.0,223.0
18:17:23,-501.0,250.0,223.0
18:17:23,-501.0,250.0,223.0
18:17:23,-501.0,250.0,223.0
18:17:23,-465.0,252.0,223.0
18:17:23,-465.0,252.0,223.0
18:17:23,-465.0,252.0,223.0
18:17:23,-465.0,252.0,223.0
18:17:23,-463.0,252.0,222.0
18:17:23,-463.0,252.0,222.0
18:17:23,-463.0,252.0,222.0
18:17:23,-463.0,252.0,222.0
18:17:23,-466.0,253.0,222.0
18:17:23,-466.0,253.0,222.0
18:17:23,-466.0,253.0,222.0
18:17:23,-466.0,253.0,222.0
18:17:23,-424.0,253.0,224.0
18:17:23,-424.0,253.0,224.0
18:17:23,-424.0,253.0,224.0
18:17:23,-424.0,253.0,224.0
18:17:23,-378.0,253.0,223.0
18:17:23,-378.0,253.0,223.0
18:17:23,-378.0,253.0,223.0
18:17:23,-378.0,253.0,223.0
18:17:23,-373.0,253.0,221.0
18:17:23,-373.0,253.0,221.0
18:17:23,-373.0,253.0,221.0
18:17:23,-373.0,253.0,221.0
18:17:23,-380.0,254.0,223.0
18:17:23,-380.0,254.0,223.0
18:17:23,-380.0,254.0,223.0
18:17:23,-380.0,254.0,223.0
18:17:23,-436.0,253.0,222.0
18:17:23,-436.0,253.0,222.0
18:17:23,-436.0,253.0,222.0
18:17:23,-436.0,253.0,222.0
18:17:23,-576.0,253.0,222.0
18:17:23,-576.0,253.0,222.0
18:17:23,-576.0,253.0,222.0
18:17:23,-576.0,253.0,222.0
18:17:23,-585.0,253.0,222.0
18:17:23,-585.0,253.0,222.0
18:17:23,-585.0,253.0,222.0
18:17:23,-585.0,253.0,222.0
18:17:23,-599.0,253.0,221.0
18:17:23,-599.0,253.0,221.0
18:17:23,-599.0,253.0,221.0
18:17:23,-599.0,253.0,221.0
18:17:23,-607.0,253.0,217.0
18:17:23,-607.0,253.0,217.0
18:17:23,-607.0,253.0,217.0
18:17:23,-607.0,253.0,217.0
18:17:23,-611.0,254.0,214.0
18:17:23,-611.0,254.0,214.0
18:17:23,-611.0,254.0,214.0
18:17:23,-611.0,254.0,214.0
18:17:23,-625.0,252.0,219.0
18:17:23,-625.0,252.0,219.0
18:17:23,-625.0,252.0,219.0
18:17:23,-625.0,252.0,219.0
18:17:23,-585.0,253.0,222.0
18:17:23,-585.0,253.0,222.0
18:17:23,-585.0,253.0,222.0
18:17:23,-585.0,253.0,222.0
18:17:23,-604.0,252.0,223.0
18:17:23,-604.0,252.0,223.0
18:17:23,-604.0,252.0,223.0
18:17:23,-604.0,252.0,223.0
18:17:23,-587.0,249.0,222.0
18:17:23,-587.0,249.0,222.0
18:17:23,-587.0,249.0,222.0
18:17:23,-587.0,249.0,222.0
18:17:23,-563.0,244.0,222.0
18:17:23,-563.0,244.0,222.0
18:17:23,-563.0,244.0,222.0
18:17:23,-563.0,244.0,222.0
18:17:23,-529.0,247.0,223.0
18:17:23,-529.0,247.0,223.0
18:17:23,-529.0,247.0,223.0
18:17:23,-529.0,247.0,223.0
18:17:23,-456.0,250.0,219.0
18:17:23,-456.0,250.0,219.0
18:17:23,-456.0,250.0,219.0
18:17:23,-456.0,250.0,219.0
18:17:23,-391.0,252.0,215.0
18:17:23,-391.0,252.0,215.0
18:17:23,-391.0,252.0,215.0
18:17:23,-391.0,252.0,215.0
18:17:23,-531.0,253.0,219.0
18:17:23,-531.0,253.0,219.0
18:17:23,-531.0,253.0,219.0
18:17:23,-531.0,253.0,219.0
18:17:23,-535.0,253.0,222.0
18:17:23,-535.0,253.0,222.0
18:17:23,-535.0,253.0,222.0
18:17:23,-535.0,253.0,222.0
18:17:23,-577.0,253.0,224.0
18:17:23,-577.0,253.0,224.0
18:17:23,-577.0,253.0,224.0
18:17:23,-577.0,253.0,224.0
18:17:23,-537.0,249.0,224.0
18:17:23,-537.0,249.0,224.0
18:17:23,-537.0,249.0,224.0
18:17:23,-537.0,249.0,224.0
18:17:23,-532.0,246.0,224.0
18:17:23,-532.0,246.0,224.0
18:17:23,-532.0,246.0,224.0
18:17:23,-532.0,246.0,224.0
18:17:23,-548.0,247.0,224.0
18:17:23,-548.0,247.0,224.0
18:17:23,-548.0,247.0,224.0
18:17:23,-548.0,247.0,224.0
18:17:23,565.0,253.0,226.0
18:17:23,565.0,253.0,226.0
18:17:23,565.0,253.0,226.0
18:17:23,565.0,253.0,226.0
18:17:23,-138.0,254.0,225.0
18:17:23,-138.0,254.0,225.0
18:17:23,-138.0,254.0,225.0
18:17:23,-138.0,254.0,225.0
18:17:23,-588.0,255.0,226.0
18:17:23,-588.0,255.0,226.0
18:17:23,-588.0,255.0,226.0
18:17:23,-588.0,255.0,226.0
18:17:23,-526.0,255.0,225.0
18:17:23,-526.0,255.0,225.0
18:17:23,-526.0,255.0,225.0
18:17:23,-526.0,255.0,225.0
18:17:23,-488.0,255.0,225.0
18:17:23,-488.0,255.0,225.0
18:17:23,-488.0,255.0,225.0
18:17:23,-488.0,255.0,225.0
18:17:23,-390.0,254.0,224.0
18:17:23,-390.0,254.0,224.0
18:17:23,-390.0,254.0,224.0
18:17:23,-390.0,254.0,224.0
18:17:23,-425.0,256.0,225.0
18:17:23,-425.0,256.0,225.0
18:17:23,-425.0,256.0,225.0
18:17:23,-425.0,256.0,225.0
18:17:23,-361.0,256.0,226.0
18:17:23,-361.0,256.0,226.0
18:17:23,-361.0,256.0,226.0
18:17:23,-361.0,256.0,226.0
18:17:23,-324.0,256.0,225.0
18:17:23,-324.0,256.0,225.0
18:17:23,-324.0,256.0,225.0
18:17:23,-324.0,256.0,225.0
18:17:23,-318.0,257.0,227.0
18:17:23,-318.0,257.0,227.0
18:17:23,-318.0,257.0,227.0
18:17:23,-318.0,257.0,227.0
18:17:23,-244.0,255.0,226.0
18:17:23,-244.0,255.0,226.0
18:17:23,-244.0,255.0,226.0
18:17:23,-244.0,255.0,226.0
18:17:23,-235.0,255.0,225.0
18:17:23,-235.0,255.0,225.0
18:17:23,-235.0,255.0,225.0
18:17:23,-235.0,255.0,225.0
18:17:23,-120.0,256.0,225.0
18:17:23,-120.0,256.0,225.0
18:17:23,-120.0,256.0,225.0
18:17:23,-120.0,256.0,225.0
18:17:23,-100.0,255.0,226.0
18:17:23,-100.0,255.0,226.0
18:17:23,-100.0,255.0,226.0
18:17:23,-100.0,255.0,226.0
18:17:23,-152.0,256.0,225.0
18:17:23,-152.0,256.0,225.0
18:17:23,-152.0,256.0,225.0
18:17:23,-152.0,256.0,225.0
18:17:23,-183.0,257.0,226.0
18:17:23,-183.0,257.0,226.0
18:17:23,-183.0,257.0,226.0
18:17:23,-183.0,257.0,226.0
18:17:23,-209.0,256.0,226.0
18:17:23,-209.0,256.0,226.0
18:17:23,-209.0,256.0,226.0
18:17:23,-209.0,256.0,226.0
18:17:23,-221.0,256.0,225.0
18:17:23,-221.0,256.0,225.0
18:17:23,-221.0,256.0,225.0
18:17:23,-221.0,256.0,225.0
18:17:23,-158.0,256.0,225.0
18:17:23,-158.0,256.0,225.0
18:17:23,-158.0,256.0,225.0
18:17:23,-158.0,256.0,225.0
18:17:23,-201.0,256.0,226.0
18:17:23,-201.0,256.0,226.0
18:17:23,-201.0,256.0,226.0
18:17:23,-201.0,256.0,226.0
18:17:23,-127.0,256.0,225.0
18:17:23,-127.0,256.0,225.0
18:17:24,-127.0,256.0,225.0
18:17:24,-127.0,256.0,225.0
18:17:24,-128.0,255.0,226.0
18:17:24,-128.0,255.0,226.0
18:17:24,-128.0,255.0,226.0
18:17:24,-128.0,255.0,226.0
18:17:24,-109.0,256.0,226.0
18:17:24,-109.0,256.0,226.0
18:17:24,-109.0,256.0,226.0
18:17:24,-109.0,256.0,226.0
18:17:24,-139.0,256.0,225.0
18:17:24,-139.0,256.0,225.0
18:17:24,-139.0,256.0,225.0
18:17:24,-139.0,256.0,225.0
18:17:24,-148.0,256.0,226.0
18:17:24,-148.0,256.0,226.0
18:17:24,-148.0,256.0,226.0
18:17:24,-148.0,256.0,226.0
18:17:24,-69.0,256.0,226.0
18:17:24,-69.0,256.0,226.0
18:17:24,-69.0,256.0,226.0
18:17:24,-69.0,256.0,226.0
18:17:24,-37.0,255.0,226.0
18:17:24,-37.0,255.0,226.0
18:17:24,-37.0,255.0,226.0
18:17:24,-37.0,255.0,226.0
18:17:24,-33.0,257.0,225.0
18:17:24,-33.0,257.0,225.0
18:17:24,-33.0,257.0,225.0
18:17:24,-33.0,257.0,225.0
18:17:24,-150.0,255.0,226.0
18:17:24,-150.0,255.0,226.0
18:17:24,-150.0,255.0,226.0
18:17:24,-150.0,255.0,226.0
18:17:24,-179.0,256.0,225.0
18:17:24,-179.0,256.0,225.0
18:17:24,-179.0,256.0,225.0
18:17:24,-179.0,256.0,225.0
18:17:24,-179.0,256.0,226.0
18:17:24,-179.0,256.0,226.0
18:17:24,-179.0,256.0,226.0
18:17:24,-179.0,256.0,226.0
18:17:24,-149.0,256.0,225.0
18:17:24,-149.0,256.0,225.0
18:17:24,-149.0,256.0,225.0
18:17:24,-149.0,256.0,225.0
18:17:24,-152.0,256.0,225.0
18:17:24,-152.0,256.0,225.0
18:17:24,-152.0,256.0,225.0
18:17:24,-152.0,256.0,225.0
18:17:24,-195.0,256.0,226.0
18:17:24,-195.0,256.0,226.0
18:17:24,-195.0,256.0,226.0
18:17:24,-195.0,256.0,226.0
18:17:24,1041.0,256.0,225.0
18:17:24,1041.0,256.0,225.0
18:17:24,1041.0,256.0,225.0
18:17:24,1041.0,256.0,225.0
18:17:24,-171.0,255.0,226.0
18:17:24,-171.0,255.0,226.0
18:17:24,-171.0,255.0,226.0
18:17:24,-171.0,255.0,226.0
18:17:24,-333.0,256.0,226.0
18:17:24,-333.0,256.0,226.0
18:17:24,-333.0,256.0,226.0
18:17:24,-333.0,256.0,226.0
18:17:24,-234.0,256.0,226.0
18:17:24,-234.0,256.0,226.0
18:17:24,-234.0,256.0,226.0
18:17:24,-234.0,256.0,226.0
18:17:24,-180.0,255.0,226.0
18:17:24,-180.0,255.0,226.0
18:17:24,-180.0,255.0,226.0
18:17:24,-180.0,255.0,226.0
18:17:24,-203.0,256.0,225.0
18:17:24,-203.0,256.0,225.0
18:17:24,-203.0,256.0,225.0
18:17:24,-203.0,256.0,225.0
18:17:24,-143.0,256.0,226.0
18:17:24,-143.0,256.0,226.0
18:17:24,-143.0,256.0,226.0
18:17:24,-143.0,256.0,226.0
18:17:24,-125.0,256.0,225.0
18:17:24,-125.0,256.0,225.0
18:17:24,-125.0,256.0,225.0
18:17:24,-125.0,256.0,225.0
18:17:24,-117.0,255.0,224.0
18:17:24,-117.0,255.0,224.0
18:17:24,-117.0,255.0,224.0
18:17:24,-117.0,255.0,224.0
18:17:24,-105.0,256.0,226.0
18:17:24,-105.0,256.0,226.0
18:17:24,-105.0,256.0,226.0
18:17:24,-105.0,256.0,226.0
18:17:24,-61.0,256.0,226.0
18:17:24,-61.0,256.0,226.0
18:17:24,-61.0,256.0,226.0
18:17:24,-61.0,256.0,226.0
18:17:24,-39.0,254.0,225.0
18:17:24,-39.0,254.0,225.0
18:17:24,-39.0,254.0,225.0
18:17:24,-39.0,254.0,225.0
18:17:24,-30.0,256.0,225.0
18:17:24,-30.0,256.0,225.0
18:17:24,-30.0,256.0,225.0
18:17:24,-30.0,256.0,225.0
18:17:24,9.0,255.0,226.0
18:17:24,9.0,255.0,226.0
18:17:24,9.0,255.0,226.0
18:17:24,9.0,255.0,226.0
18:17:24,-27.0,256.0,225.0
18:17:24,-27.0,256.0,225.0
18:17:24,-27.0,256.0,225.0
18:17:24,-27.0,256.0,225.0
18:17:24,-154.0,256.0,226.0
18:17:24,-154.0,256.0,226.0
18:17:24,-154.0,256.0,226.0
18:17:24,-154.0,256.0,226.0
18:17:24,-192.0,256.0,226.0
18:17:24,-192.0,256.0,226.0
18:17:24,-192.0,256.0,226.0
18:17:24,-192.0,256.0,226.0
18:17:24,-200.0,257.0,225.0
18:17:24,-200.0,257.0,225.0
18:17:24,-200.0,257.0,225.0
18:17:24,-200.0,257.0,225.0
18:17:24,-187.0,256.0,225.0
18:17:24,-187.0,256.0,225.0
18:17:24,-187.0,256.0,225.0
18:17:24,-187.0,256.0,225.0
18:17:24,-143.0,255.0,227.0
18:17:24,-143.0,255.0,227.0
18:17:24,-143.0,255.0,227.0
18:17:24,-143.0,255.0,227.0
18:17:24,-160.0,255.0,225.0
18:17:24,-160.0,255.0,225.0
18:17:24,-160.0,255.0,225.0
18:17:24,-160.0,255.0,225.0
18:17:24,-136.0,256.0,225.0
18:17:24,-136.0,256.0,225.0
18:17:24,-136.0,256.0,225.0
18:17:24,-136.0,256.0,225.0
18:17:24,-150.0,255.0,226.0
18:17:24,-150.0,255.0,226.0
18:17:24,-150.0,255.0,226.0
18:17:24,-150.0,255.0,226.0
18:17:24,-131.0,257.0,225.0
18:17:24,-131.0,257.0,225.0
18:17:24,-131.0,257.0,225.0
18:17:24,-131.0,257.0,225.0
18:17:24,-92.0,257.0,227.0
18:17:24,-92.0,257.0,227.0
18:17:24,-92.0,257.0,227.0
18:17:24,-92.0,257.0,227.0
18:17:24,-61.0,255.0,226.0
18:17:24,-61.0,255.0,226.0
18:17:24,-61.0,255.0,226.0
18:17:24,-61.0,255.0,226.0
18:17:24,50.0,257.0,225.0
18:17:24,50.0,257.0,225.0
18:17:24,50.0,257.0,225.0
18:17:24,50.0,257.0,225.0
18:17:24,5.0,255.0,226.0
18:17:24,5.0,255.0,226.0
18:17:24,5.0,255.0,226.0
18:17:24,5.0,255.0,226.0
18:17:24,-109.0,257.0,227.0
18:17:24,-109.0,257.0,227.0
18:17:24,-109.0,257.0,227.0
18:17:24,-109.0,257.0,227.0
18:17:24,-80.0,256.0,225.0
18:17:24,-80.0,256.0,225.0
18:17:24,-80.0,256.0,225.0
18:17:24,-80.0,256.0,225.0
18:17:24,-103.0,256.0,226.0
18:17:24,-103.0,256.0,226.0
18:17:24,-103.0,256.0,226.0
18:17:24,-103.0,256.0,226.0
18:17:24,-89.0,256.0,227.0
18:17:24,-89.0,256.0,227.0
18:17:24,-89.0,256.0,227.0
18:17:24,-89.0,256.0,227.0
18:17:24,-133.0,256.0,226.0
18:17:24,-133.0,256.0,226.0
18:17:24,-133.0,256.0,226.0
18:17:24,-133.0,256.0,226.0
18:17:24,15.0,256.0,226.0
18:17:24,15.0,256.0,226.0
18:17:24,15.0,256.0,226.0
18:17:24,15.0,256.0,226.0
18:17:24,1498.0,256.0,227.0
18:17:24,1498.0,256.0,227.0
18:17:24,1498.0,256.0,227.0
18:17:24,1498.0,256.0,227.0
18:17:24,-414.0,257.0,230.0
18:17:24,-414.0,257.0,230.0
18:17:24,-414.0,257.0,230.0
18:17:24,-414.0,257.0,230.0
18:17:24,-232.0,257.0,233.0
18:17:24,-232.0,257.0,233.0
18:17:24,-232.0,257.0,233.0
18:17:25,-232.0,257.0,233.0
18:17:25,-242.0,256.0,231.0
18:17:25,-242.0,256.0,231.0
18:17:25,-242.0,256.0,231.0
18:17:25,-242.0,256.0,231.0
18:17:25,-212.0,256.0,227.0
18:17:25,-212.0,256.0,227.0
18:17:25,-212.0,256.0,227.0
18:17:25,-212.0,256.0,227.0
18:17:25,-187.0,257.0,226.0
18:17:25,-187.0,257.0,226.0
18:17:25,-187.0,257.0,226.0
18:17:25,-187.0,257.0,226.0
18:17:25,-196.0,260.0,226.0
18:17:25,-196.0,260.0,226.0
18:17:25,-196.0,260.0,226.0
18:17:25,-196.0,260.0,226.0
18:17:25,-121.0,262.0,225.0
18:17:25,-121.0,262.0,225.0
18:17:25,-121.0,262.0,225.0
18:17:25,-121.0,262.0,225.0
18:17:25,-154.0,262.0,225.0
18:17:25,-154.0,262.0,225.0
18:17:25,-154.0,262.0,225.0
18:17:25,-154.0,262.0,225.0
18:17:25,-54.0,259.0,225.0
18:17:25,-54.0,259.0,225.0
18:17:25,-54.0,259.0,225.0
18:17:25,-54.0,259.0,225.0
18:17:25,-54.0,256.0,225.0
18:17:25,-54.0,256.0,225.0
18:17:25,-54.0,256.0,225.0
18:17:25,-54.0,256.0,225.0
18:17:25,-40.0,255.0,227.0
18:17:25,-40.0,255.0,227.0
18:17:25,-40.0,255.0,227.0
18:17:25,-40.0,255.0,227.0
18:17:25,-11.0,257.0,225.0
18:17:25,-11.0,257.0,225.0
18:17:25,-11.0,257.0,225.0
18:17:25,-11.0,257.0,225.0
18:17:25,-14.0,255.0,227.0
18:17:25,-14.0,255.0,227.0
18:17:25,-14.0,255.0,227.0
18:17:25,-14.0,255.0,227.0
18:17:25,-34.0,255.0,232.0
18:17:25,-34.0,255.0,232.0
18:17:25,-34.0,255.0,232.0
18:17:25,-34.0,255.0,232.0
18:17:25,-81.0,255.0,232.0
18:17:25,-81.0,255.0,232.0
18:17:25,-81.0,255.0,232.0
18:17:25,-81.0,255.0,232.0
18:17:25,-166.0,255.0,230.0
18:17:25,-166.0,255.0,230.0
18:17:25,-166.0,255.0,230.0
18:17:25,-166.0,255.0,230.0
18:17:25,-99.0,255.0,226.0
18:17:25,-99.0,255.0,226.0
18:17:25,-99.0,255.0,226.0
18:17:25,-99.0,255.0,226.0
18:17:25,-90.0,257.0,224.0
18:17:25,-90.0,257.0,224.0
18:17:25,-90.0,257.0,224.0
18:17:25,-90.0,257.0,224.0
18:17:25,-77.0,260.0,223.0
18:17:25,-77.0,260.0,223.0
18:17:25,-77.0,260.0,223.0
18:17:25,-77.0,260.0,223.0
18:17:25,-77.0,263.0,224.0
18:17:25,-77.0,263.0,224.0
18:17:25,-77.0,263.0,224.0
18:17:25,-77.0,263.0,224.0
18:17:25,-120.0,261.0,223.0
18:17:25,-120.0,261.0,223.0
18:17:25,-120.0,261.0,223.0
18:17:25,-120.0,261.0,223.0
18:17:25,-78.0,256.0,223.0
18:17:25,-78.0,256.0,223.0
18:17:25,-78.0,256.0,223.0
18:17:25,-78.0,256.0,223.0
18:17:25,-112.0,256.0,224.0
18:17:25,-112.0,256.0,224.0
18:17:25,-112.0,256.0,224.0
18:17:25,-112.0,256.0,224.0
18:17:25,-54.0,255.0,223.0
18:17:25,-54.0,255.0,223.0
18:17:25,-54.0,255.0,223.0
18:17:25,-54.0,255.0,223.0
18:17:25,-68.0,254.0,223.0
18:17:25,-68.0,254.0,223.0
18:17:25,-68.0,254.0,223.0
18:17:25,-68.0,254.0,223.0
18:17:25,12.0,255.0,223.0
18:17:25,12.0,255.0,223.0
18:17:25,12.0,255.0,223.0
18:17:25,12.0,255.0,223.0
18:17:25,-28.0,255.0,223.0
18:17:25,-28.0,255.0,223.0
18:17:25,-28.0,255.0,223.0
18:17:25,-28.0,255.0,223.0
18:17:25,-99.0,254.0,223.0
18:17:25,-99.0,254.0,223.0
18:17:25,-99.0,254.0,223.0
18:17:25,-99.0,254.0,223.0
18:17:25,-141.0,254.0,224.0
18:17:25,-141.0,254.0,224.0
18:17:25,-141.0,254.0,224.0
18:17:25,-141.0,254.0,224.0
18:17:25,-135.0,256.0,223.0
18:17:25,-135.0,256.0,223.0
18:17:25,-135.0,256.0,223.0
18:17:25,-135.0,256.0,223.0
18:17:25,-101.0,254.0,223.0
18:17:25,-101.0,254.0,223.0
18:17:25,-101.0,254.0,223.0
18:17:25,-101.0,254.0,223.0
18:17:25,-111.0,254.0,226.0
18:17:25,-111.0,254.0,226.0
18:17:25,-111.0,254.0,226.0
18:17:25,-111.0,254.0,226.0
18:17:25,192.0,255.0,229.0
18:17:25,192.0,255.0,229.0
18:17:25,192.0,255.0,229.0
18:17:25,192.0,255.0,229.0
18:17:25,1475.0,254.0,227.0
18:17:25,1475.0,254.0,227.0
18:17:25,1475.0,254.0,227.0
18:17:25,1475.0,254.0,227.0
18:17:25,-301.0,255.0,224.0
18:17:25,-301.0,255.0,224.0
18:17:25,-301.0,255.0,224.0
18:17:25,-301.0,255.0,224.0
18:17:25,-277.0,254.0,223.0
18:17:25,-277.0,254.0,223.0
18:17:25,-277.0,254.0,223.0
18:17:25,-277.0,254.0,223.0
18:17:25,-84.0,256.0,221.0
18:17:25,-84.0,256.0,221.0
18:17:25,-84.0,256.0,221.0
18:17:25,-84.0,256.0,221.0
18:17:25,-9.0,260.0,222.0
18:17:25,-9.0,260.0,222.0
18:17:25,-9.0,260.0,222.0
18:17:25,-9.0,260.0,222.0
18:17:25,24.0,258.0,222.0
18:17:25,24.0,258.0,222.0
18:17:25,24.0,258.0,222.0
18:17:25,24.0,258.0,222.0
18:17:25,50.0,255.0,222.0
18:17:25,50.0,255.0,222.0
18:17:25,50.0,255.0,222.0
18:17:25,50.0,255.0,222.0
18:17:25,2.0,253.0,222.0
18:17:25,2.0,253.0,222.0
18:17:25,2.0,253.0,222.0
18:17:25,2.0,253.0,222.0
18:17:25,-9.0,253.0,223.0
18:17:25,-9.0,253.0,223.0
18:17:25,-9.0,253.0,223.0
18:17:25,-9.0,253.0,223.0
18:17:25,115.0,254.0,222.0
18:17:25,115.0,254.0,222.0
18:17:25,115.0,254.0,222.0
18:17:25,115.0,254.0,222.0
18:17:25,121.0,253.0,221.0
18:17:25,121.0,253.0,221.0
18:17:25,121.0,253.0,221.0
18:17:25,121.0,253.0,221.0
18:17:25,76.0,253.0,222.0
18:17:25,76.0,253.0,222.0
18:17:25,76.0,253.0,222.0
18:17:25,76.0,253.0,222.0
18:17:25,134.0,252.0,222.0
18:17:25,134.0,252.0,222.0
18:17:25,134.0,252.0,222.0
18:17:25,134.0,252.0,222.0
18:17:25,132.0,253.0,222.0
18:17:25,132.0,253.0,222.0
18:17:25,132.0,253.0,222.0
18:17:25,132.0,253.0,222.0
18:17:25,198.0,253.0,222.0
18:17:25,198.0,253.0,222.0
18:17:25,198.0,253.0,222.0
18:17:25,198.0,253.0,222.0
18:17:25,-12.0,252.0,222.0
18:17:25,-12.0,252.0,222.0
18:17:25,-12.0,252.0,222.0
18:17:25,-12.0,252.0,222.0
18:17:25,23.0,253.0,222.0
18:17:25,23.0,253.0,222.0
18:17:25,23.0,253.0,222.0
18:17:25,23.0,253.0,222.0
18:17:25,0.0,253.0,221.0
18:17:25,0.0,253.0,221.0
18:17:25,0.0,253.0,221.0
18:17:25,0.0,253.0,221.0
18:17:25,64.0,253.0,222.0
18:17:25,64.0,253.0,222.0
18:17:25,64.0,253.0,222.0
18:17:25,64.0,253.0,222.0
18:17:26,-30.0,252.0,223.0
18:17:26,-30.0,252.0,223.0
18:17:26,-30.0,252.0,223.0
18:17:26,-30.0,252.0,223.0
18:17:26,-82.0,253.0,222.0
18:17:26,-82.0,253.0,222.0
18:17:26,-82.0,253.0,222.0
18:17:26,-82.0,253.0,222.0
18:17:26,-63.0,252.0,222.0
18:17:26,-63.0,252.0,222.0
18:17:26,-63.0,252.0,222.0
18:17:26,-63.0,252.0,222.0
18:17:26,-100.0,252.0,221.0
18:17:26,-100.0,252.0,221.0
18:17:26,-100.0,252.0,221.0
18:17:26,-100.0,252.0,221.0
18:17:26,-114.0,253.0,222.0
18:17:26,-114.0,253.0,222.0
18:17:26,-114.0,253.0,222.0
18:17:26,-114.0,253.0,222.0
18:17:26,-100.0,252.0,222.0
18:17:26,-100.0,252.0,222.0
18:17:26,-100.0,252.0,222.0
18:17:26,-100.0,252.0,222.0
18:17:26,-77.0,253.0,222.0
18:17:26,-77.0,253.0,222.0
18:17:26,-77.0,253.0,222.0
18:17:26,-77.0,253.0,222.0
18:17:26,-207.0,253.0,221.0
18:17:26,-207.0,253.0,221.0
18:17:26,-207.0,253.0,221.0
18:17:26,-207.0,253.0,221.0
18:17:26,-153.0,252.0,223.0
18:17:26,-153.0,252.0,223.0
18:17:26,-153.0,252.0,223.0
18:17:26,-153.0,252.0,223.0
18:17:26,-278.0,253.0,221.0
18:17:26,-278.0,253.0,221.0
18:17:26,-278.0,253.0,221.0
18:17:26,-278.0,253.0,221.0
18:17:26,-282.0,253.0,222.0
18:17:26,-282.0,253.0,222.0
18:17:26,-282.0,253.0,222.0
18:17:26,-282.0,253.0,222.0
18:17:26,-275.0,251.0,222.0
18:17:26,-275.0,251.0,222.0
18:17:26,-275.0,251.0,222.0
18:17:26,-275.0,251.0,222.0
18:17:26,-267.0,252.0,222.0
18:17:26,-267.0,252.0,222.0
18:17:26,-267.0,252.0,222.0
18:17:26,-267.0,252.0,222.0
18:17:26,-273.0,253.0,222.0
18:17:26,-273.0,253.0,222.0
18:17:26,-273.0,253.0,222.0
18:17:26,-273.0,253.0,222.0
18:17:26,-211.0,252.0,222.0
18:17:26,-211.0,252.0,222.0
18:17:26,-211.0,252.0,222.0
18:17:26,-211.0,252.0,222.0
18:17:26,1154.0,253.0,222.0
18:17:26,1154.0,253.0,222.0
18:17:26,1154.0,253.0,222.0
18:17:26,1154.0,253.0,222.0
18:17:26,-692.0,252.0,218.0
18:17:26,-692.0,252.0,218.0
18:17:26,-692.0,252.0,218.0
18:17:26,-692.0,252.0,218.0
18:17:26,-449.0,251.0,218.0
18:17:26,-449.0,251.0,218.0
18:17:26,-449.0,251.0,218.0
18:17:26,-449.0,251.0,218.0
18:17:26,-454.0,252.0,218.0
18:17:26,-454.0,252.0,218.0
18:17:26,-454.0,252.0,218.0
18:17:26,-454.0,252.0,218.0
18:17:26,-390.0,252.0,220.0
18:17:26,-390.0,252.0,220.0
18:17:26,-390.0,252.0,220.0
18:17:26,-390.0,252.0,220.0
18:17:26,-417.0,252.0,222.0
18:17:26,-417.0,252.0,222.0
18:17:26,-417.0,252.0,222.0
18:17:26,-417.0,252.0,222.0
18:17:26,-365.0,250.0,221.0
18:17:26,-365.0,250.0,221.0
18:17:26,-365.0,250.0,221.0
18:17:26,-365.0,250.0,221.0
18:17:26,-304.0,247.0,222.0
18:17:26,-304.0,247.0,222.0
18:17:26,-304.0,247.0,222.0
18:17:26,-304.0,247.0,222.0
18:17:26,-330.0,248.0,222.0
18:17:26,-330.0,248.0,222.0
18:17:26,-330.0,248.0,222.0
18:17:26,-330.0,248.0,222.0
18:17:26,-272.0,250.0,222.0
18:17:26,-272.0,250.0,222.0
18:17:26,-272.0,250.0,222.0
18:17:26,-272.0,250.0,222.0
18:17:26,-239.0,252.0,223.0
18:17:26,-239.0,252.0,223.0
18:17:26,-239.0,252.0,223.0
18:17:26,-239.0,252.0,223.0
18:17:26,-231.0,252.0,223.0
18:17:26,-231.0,252.0,223.0
18:17:26,-231.0,252.0,223.0
18:17:26,-231.0,252.0,223.0
18:17:26,-198.0,252.0,221.0
18:17:26,-198.0,252.0,221.0
18:17:26,-198.0,252.0,221.0
18:17:26,-198.0,252.0,221.0
18:17:26,-138.0,253.0,222.0
18:17:26,-138.0,253.0,222.0
18:17:26,-138.0,253.0,222.0
18:17:26,-138.0,253.0,222.0
18:17:26,-193.0,252.0,222.0
18:17:26,-193.0,252.0,222.0
18:17:26,-193.0,252.0,222.0
18:17:26,-193.0,252.0,222.0
18:17:26,-256.0,252.0,222.0
18:17:26,-256.0,252.0,222.0
18:17:26,-256.0,252.0,222.0
18:17:26,-256.0,252.0,222.0
18:17:26,-277.0,252.0,222.0
18:17:26,-277.0,252.0,222.0
18:17:26,-277.0,252.0,222.0
18:17:26,-277.0,252.0,222.0
18:17:26,-249.0,252.0,222.0
18:17:26,-249.0,252.0,222.0
18:17:26,-249.0,252.0,222.0
18:17:26,-249.0,252.0,222.0
18:17:26,-271.0,254.0,223.0
18:17:26,-271.0,254.0,223.0
18:17:26,-271.0,254.0,223.0
18:17:26,-271.0,254.0,223.0
18:17:26,-270.0,254.0,221.0
18:17:26,-270.0,254.0,221.0
18:17:26,-270.0,254.0,221.0
18:17:26,-270.0,254.0,221.0
18:17:26,-274.0,253.0,219.0
18:17:26,-274.0,253.0,219.0
18:17:26,-274.0,253.0,219.0
18:17:26,-274.0,253.0,219.0
18:17:26,-186.0,253.0,215.0
18:17:26,-186.0,253.0,215.0
18:17:26,-186.0,253.0,215.0
18:17:26,-186.0,253.0,215.0
18:17:26,-205.0,252.0,215.0
18:17:26,-205.0,252.0,215.0
18:17:26,-205.0,252.0,215.0
18:17:26,-205.0,252.0,215.0
18:17:26,-181.0,252.0,221.0
18:17:26,-181.0,252.0,221.0
18:17:26,-181.0,252.0,221.0
18:17:26,-181.0,252.0,221.0
18:17:26,-198.0,252.0,222.0
18:17:26,-198.0,252.0,222.0
18:17:26,-198.0,252.0,222.0
18:17:26,-198.0,252.0,222.0
18:17:26,-139.0,251.0,223.0
18:17:26,-139.0,251.0,223.0
18:17:26,-139.0,251.0,223.0
18:17:26,-139.0,251.0,223.0
18:17:26,-135.0,247.0,223.0
18:17:26,-135.0,247.0,223.0
18:17:26,-135.0,247.0,223.0
18:17:26,-135.0,247.0,223.0
18:17:26,-127.0,244.0,222.0
18:17:26,-127.0,244.0,222.0
18:17:26,-127.0,244.0,222.0
18:17:26,-127.0,244.0,222.0
18:17:26,-229.0,250.0,220.0
18:17:26,-229.0,250.0,220.0
18:17:26,-229.0,250.0,220.0
18:17:26,-229.0,250.0,220.0
18:17:26,-252.0,251.0,216.0
18:17:26,-252.0,251.0,216.0
18:17:26,-252.0,251.0,216.0
18:17:26,-252.0,251.0,216.0
18:17:26,-249.0,253.0,216.0
18:17:26,-249.0,253.0,216.0
18:17:26,-249.0,253.0,216.0
18:17:26,-249.0,253.0,216.0
18:17:26,-258.0,253.0,222.0
18:17:26,-258.0,253.0,222.0
18:17:26,-258.0,253.0,222.0
18:17:26,-258.0,253.0,222.0
18:17:26,-213.0,254.0,224.0
18:17:26,-213.0,254.0,224.0
18:17:26,-213.0,254.0,224.0
18:17:26,-213.0,254.0,224.0
18:17:26,-153.0,253.0,223.0
18:17:26,-153.0,253.0,223.0
18:17:26,-153.0,253.0,223.0
18:17:26,-153.0,253.0,223.0
18:17:26,1267.0,250.0,225.0
18:17:26,1267.0,250.0,225.0
18:17:26,1267.0,250.0,225.0
18:17:26,1267.0,250.0,225.0
18:17:26,-497.0,245.0,225.0
18:17:27,-497.0,245.0,225.0
18:17:27,-497.0,245.0,225.0
18:17:27,-497.0,245.0,225.0
18:17:27,-420.0,247.0,224.0
18:17:27,-420.0,247.0,224.0
18:17:27,-420.0,247.0,224.0
18:17:27,-420.0,247.0,224.0
18:17:27,-356.0,253.0,225.0
18:17:27,-356.0,253.0,225.0
18:17:27,-356.0,253.0,225.0
18:17:27,-356.0,253.0,225.0
18:17:27,-322.0,254.0,225.0
18:17:27,-322.0,254.0,225.0
18:17:27,-322.0,254.0,225.0
18:17:27,-322.0,254.0,225.0
18:17:27,-338.0,255.0,225.0
18:17:27,-338.0,255.0,225.0
18:17:27,-338.0,255.0,225.0
18:17:27,-338.0,255.0,225.0
18:17:27,-304.0,254.0,226.0
18:17:27,-304.0,254.0,226.0
18:17:27,-304.0,254.0,226.0
18:17:27,-304.0,254.0,226.0
18:17:27,-201.0,255.0,226.0
18:17:27,-201.0,255.0,226.0
18:17:27,-201.0,255.0,226.0
18:17:27,-201.0,255.0,226.0
18:17:27,-242.0,255.0,224.0
18:17:27,-242.0,255.0,224.0
18:17:27,-242.0,255.0,224.0
18:17:27,-242.0,255.0,224.0
18:17:27,-196.0,256.0,226.0
18:17:27,-196.0,256.0,226.0
18:17:27,-196.0,256.0,226.0
18:17:27,-196.0,256.0,226.0
18:17:27,-167.0,255.0,226.0
18:17:27,-167.0,255.0,226.0
18:17:27,-167.0,255.0,226.0
18:17:27,-167.0,255.0,226.0
18:17:27,-95.0,256.0,225.0
18:17:27,-95.0,256.0,225.0
18:17:27,-95.0,256.0,225.0
18:17:27,-95.0,256.0,225.0
18:17:27,-85.0,254.0,226.0
18:17:27,-85.0,254.0,226.0
18:17:27,-85.0,254.0,226.0
18:17:27,-85.0,254.0,226.0
18:17:27,-27.0,255.0,226.0
18:17:27,-27.0,255.0,226.0
18:17:27,-27.0,255.0,226.0
18:17:27,-27.0,255.0,226.0
18:17:27,-84.0,256.0,226.0
18:17:27,-84.0,256.0,226.0
18:17:27,-84.0,256.0,226.0
18:17:27,-84.0,256.0,226.0
18:17:27,-131.0,256.0,226.0
18:17:27,-131.0,256.0,226.0
18:17:27,-131.0,256.0,226.0
18:17:27,-131.0,256.0,226.0
18:17:27,-174.0,256.0,227.0
18:17:27,-174.0,256.0,227.0
18:17:27,-174.0,256.0,227.0
18:17:27,-174.0,256.0,227.0
18:17:27,-195.0,257.0,225.0
18:17:27,-195.0,257.0,225.0
18:17:27,-195.0,257.0,225.0
18:17:27,-195.0,257.0,225.0
18:17:27,-149.0,256.0,227.0
18:17:27,-149.0,256.0,227.0
18:17:27,-149.0,256.0,227.0
18:17:27,-149.0,256.0,227.0
18:17:27,-194.0,255.0,226.0
18:17:27,-194.0,255.0,226.0
18:17:27,-194.0,255.0,226.0
18:17:27,-194.0,255.0,226.0
18:17:27,-184.0,256.0,225.0
18:17:27,-184.0,256.0,225.0
18:17:27,-184.0,256.0,225.0
18:17:27,-184.0,256.0,225.0
18:17:27,-198.0,256.0,226.0
18:17:27,-198.0,256.0,226.0
18:17:27,-198.0,256.0,226.0
18:17:27,-198.0,256.0,226.0
18:17:27,-196.0,256.0,225.0
18:17:27,-196.0,256.0,225.0
18:17:27,-196.0,256.0,225.0
18:17:27,-196.0,256.0,225.0
18:17:27,-193.0,256.0,225.0
18:17:27,-193.0,256.0,225.0
18:17:27,-193.0,256.0,225.0
18:17:27,-193.0,256.0,225.0
18:17:27,-214.0,255.0,226.0
18:17:27,-214.0,255.0,226.0
18:17:27,-214.0,255.0,226.0
18:17:27,-214.0,255.0,226.0
18:17:27,-178.0,257.0,226.0
18:17:27,-178.0,257.0,226.0
18:17:27,-178.0,257.0,226.0
18:17:27,-178.0,257.0,226.0
18:17:27,-135.0,256.0,225.0
18:17:27,-135.0,256.0,225.0
18:17:27,-135.0,256.0,225.0
18:17:27,-135.0,256.0,225.0
18:17:27,-22.0,256.0,226.0
18:17:27,-22.0,256.0,226.0
18:17:27,-22.0,256.0,226.0
18:17:27,-22.0,256.0,226.0
18:17:27,-149.0,255.0,226.0
18:17:27,-149.0,255.0,226.0
18:17:27,-149.0,255.0,226.0
18:17:27,-149.0,255.0,226.0
18:17:27,-241.0,257.0,225.0
18:17:27,-241.0,257.0,225.0
18:17:27,-241.0,257.0,225.0
18:17:27,-241.0,257.0,225.0
18:17:27,-251.0,257.0,227.0
18:17:27,-251.0,257.0,227.0
18:17:27,-251.0,257.0,227.0
18:17:27,-251.0,257.0,227.0
18:17:27,-211.0,256.0,226.0
18:17:27,-211.0,256.0,226.0
18:17:27,-211.0,256.0,226.0
18:17:27,-211.0,256.0,226.0
18:17:27,-225.0,255.0,224.0
18:17:27,-225.0,255.0,224.0
18:17:27,-225.0,255.0,224.0
18:17:27,-225.0,255.0,224.0
18:17:27,-233.0,256.0,225.0
18:17:27,-233.0,256.0,225.0
18:17:27,-233.0,256.0,225.0
18:17:27,-233.0,256.0,225.0
18:17:27,584.0,256.0,226.0
18:17:27,584.0,256.0,226.0
18:17:27,584.0,256.0,226.0
18:17:27,584.0,256.0,226.0
18:17:27,794.0,256.0,225.0
18:17:27,794.0,256.0,225.0
18:17:27,794.0,256.0,225.0
18:17:27,794.0,256.0,225.0
18:17:27,-428.0,255.0,226.0
18:17:27,-428.0,255.0,226.0
18:17:27,-428.0,255.0,226.0
18:17:27,-428.0,255.0,226.0
18:17:27,-355.0,255.0,225.0
18:17:27,-355.0,255.0,225.0
18:17:27,-355.0,255.0,225.0
18:17:27,-355.0,255.0,225.0
18:17:27,-307.0,256.0,225.0
18:17:27,-307.0,256.0,225.0
18:17:27,-307.0,256.0,225.0
18:17:27,-307.0,256.0,225.0
18:17:27,-266.0,256.0,226.0
18:17:27,-266.0,256.0,226.0
18:17:27,-266.0,256.0,226.0
18:17:27,-266.0,256.0,226.0
18:17:27,-243.0,256.0,225.0
18:17:27,-243.0,256.0,225.0
18:17:27,-243.0,256.0,225.0
18:17:27,-243.0,256.0,225.0
18:17:27,-242.0,255.0,224.0
18:17:27,-242.0,255.0,224.0
18:17:27,-242.0,255.0,224.0
18:17:27,-242.0,255.0,224.0
18:17:27,-254.0,256.0,226.0
18:17:27,-254.0,256.0,226.0
18:17:27,-254.0,256.0,226.0
18:17:27,-254.0,256.0,226.0
18:17:27,-218.0,256.0,226.0
18:17:27,-218.0,256.0,226.0
18:17:27,-218.0,256.0,226.0
18:17:27,-218.0,256.0,226.0
18:17:27,-129.0,255.0,226.0
18:17:27,-129.0,255.0,226.0
18:17:27,-129.0,255.0,226.0
18:17:27,-129.0,255.0,226.0
18:17:27,-117.0,256.0,226.0
18:17:27,-117.0,256.0,226.0
18:17:27,-117.0,256.0,226.0
18:17:27,-117.0,256.0,226.0
18:17:27,-70.0,257.0,226.0
18:17:27,-70.0,257.0,226.0
18:17:27,-70.0,257.0,226.0
18:17:27,-70.0,257.0,226.0
18:17:27,-48.0,255.0,226.0
18:17:27,-48.0,255.0,226.0
18:17:27,-48.0,255.0,226.0
18:17:27,-48.0,255.0,226.0
18:17:27,-122.0,256.0,227.0
18:17:27,-122.0,256.0,227.0
18:17:27,-122.0,256.0,227.0
18:17:27,-122.0,256.0,227.0
18:17:27,-192.0,256.0,226.0
18:17:27,-192.0,256.0,226.0
18:17:27,-192.0,256.0,226.0
18:17:27,-192.0,256.0,226.0
18:17:27,-191.0,255.0,227.0
18:17:27,-191.0,255.0,227.0
18:17:27,-191.0,255.0,227.0
18:17:27,-191.0,255.0,227.0
18:17:27,-212.0,257.0,225.0
18:17:27,-212.0,257.0,225.0
18:17:28,-212.0,257.0,225.0
18:17:28,-212.0,257.0,225.0
18:17:28,-223.0,256.0,226.0
18:17:28,-223.0,256.0,226.0
18:17:28,-223.0,256.0,226.0
18:17:28,-223.0,256.0,226.0
18:17:28,-192.0,257.0,226.0
18:17:28,-192.0,257.0,226.0
18:17:28,-192.0,257.0,226.0
18:17:28,-192.0,257.0,226.0
18:17:28,-233.0,256.0,226.0
18:17:28,-233.0,256.0,226.0
18:17:28,-233.0,256.0,226.0
18:17:28,-233.0,256.0,226.0
18:17:28,-203.0,256.0,226.0
18:17:28,-203.0,256.0,226.0
18:17:28,-203.0,256.0,226.0
18:17:28,-203.0,256.0,226.0
18:17:28,-225.0,257.0,226.0
18:17:28,-225.0,257.0,226.0
18:17:28,-225.0,257.0,226.0
18:17:28,-225.0,257.0,226.0
18:17:28,-211.0,256.0,225.0
18:17:28,-211.0,256.0,225.0
18:17:28,-211.0,256.0,225.0
18:17:28,-211.0,256.0,225.0
18:17:28,-231.0,257.0,226.0
18:17:28,-231.0,257.0,226.0
18:17:28,-231.0,257.0,226.0
18:17:28,-231.0,257.0,226.0
18:17:28,-221.0,258.0,226.0
18:17:28,-221.0,258.0,226.0
18:17:28,-221.0,258.0,226.0
18:17:28,-221.0,258.0,226.0
18:17:28,-202.0,255.0,227.0
18:17:28,-202.0,255.0,227.0
18:17:28,-202.0,255.0,227.0
18:17:28,-202.0,255.0,227.0
18:17:28,-186.0,255.0,225.0
18:17:28,-186.0,255.0,225.0
18:17:28,-186.0,255.0,225.0
18:17:28,-186.0,255.0,225.0
18:17:28,-90.0,256.0,226.0
18:17:28,-90.0,256.0,226.0
18:17:28,-90.0,256.0,226.0
18:17:28,-90.0,256.0,226.0
18:17:28,-167.0,256.0,226.0
18:17:28,-167.0,256.0,226.0
18:17:28,-167.0,256.0,226.0
18:17:28,-167.0,256.0,226.0
18:17:28,-303.0,257.0,226.0
18:17:28,-303.0,257.0,226.0
18:17:28,-303.0,257.0,226.0
18:17:28,-303.0,257.0,226.0
18:17:28,-295.0,256.0,225.0
18:17:28,-295.0,256.0,225.0
18:17:28,-295.0,256.0,225.0
18:17:28,-295.0,256.0,225.0
18:17:28,-278.0,255.0,227.0
18:17:28,-278.0,255.0,227.0
18:17:28,-278.0,255.0,227.0
18:17:28,-278.0,255.0,227.0
18:17:28,-268.0,256.0,225.0
18:17:28,-268.0,256.0,225.0
18:17:28,-268.0,256.0,225.0
18:17:28,-268.0,256.0,225.0
18:17:28,-272.0,257.0,228.0
18:17:28,-272.0,257.0,228.0
18:17:28,-272.0,257.0,228.0
18:17:28,-272.0,257.0,228.0
18:17:28,164.0,256.0,233.0
18:17:28,164.0,256.0,233.0
18:17:28,164.0,256.0,233.0
18:17:28,164.0,256.0,233.0
18:17:28,1144.0,257.0,232.0
18:17:28,1144.0,257.0,232.0
18:17:28,1144.0,257.0,232.0
18:17:28,1144.0,257.0,232.0
18:17:28,-543.0,257.0,230.0
18:17:28,-543.0,257.0,230.0
18:17:28,-543.0,257.0,230.0
18:17:28,-543.0,257.0,230.0
18:17:28,-398.0,256.0,228.0
18:17:28,-398.0,256.0,228.0
18:17:28,-398.0,256.0,228.0
18:17:28,-398.0,256.0,228.0
18:17:28,-372.0,256.0,224.0
18:17:28,-372.0,256.0,224.0
18:17:28,-372.0,256.0,224.0
18:17:28,-372.0,256.0,224.0
18:17:28,-336.0,262.0,226.0
18:17:28,-336.0,262.0,226.0
18:17:28,-336.0,262.0,226.0
18:17:28,-336.0,262.0,226.0
18:17:28,-285.0,261.0,226.0
18:17:28,-285.0,261.0,226.0
18:17:28,-285.0,261.0,226.0
18:17:28,-285.0,261.0,226.0
18:17:28,-256.0,261.0,224.0
18:17:28,-256.0,261.0,224.0
18:17:28,-256.0,261.0,224.0
18:17:28,-256.0,261.0,224.0
18:17:28,-217.0,257.0,226.0
18:17:28,-217.0,257.0,226.0
18:17:28,-217.0,257.0,226.0
18:17:28,-217.0,257.0,226.0
18:17:28,-220.0,257.0,226.0
18:17:28,-220.0,257.0,226.0
18:17:28,-220.0,257.0,226.0
18:17:28,-220.0,257.0,226.0
18:17:28,-144.0,257.0,225.0
18:17:28,-144.0,257.0,225.0
18:17:28,-144.0,257.0,225.0
18:17:28,-144.0,257.0,225.0
18:17:28,-108.0,256.0,226.0
18:17:28,-108.0,256.0,226.0
18:17:28,-108.0,256.0,226.0
18:17:28,-108.0,256.0,226.0
18:17:28,-64.0,256.0,231.0
18:17:28,-64.0,256.0,231.0
18:17:28,-64.0,256.0,231.0
18:17:28,-64.0,256.0,231.0
18:17:28,-36.0,256.0,231.0
18:17:28,-36.0,256.0,231.0
18:17:28,-36.0,256.0,231.0
18:17:28,-36.0,256.0,231.0
18:17:28,-63.0,256.0,230.0
18:17:28,-63.0,256.0,230.0
18:17:28,-63.0,256.0,230.0
18:17:28,-63.0,256.0,230.0
18:17:28,-86.0,255.0,227.0
18:17:28,-86.0,255.0,227.0
18:17:28,-86.0,255.0,227.0
18:17:28,-86.0,255.0,227.0
18:17:28,-195.0,256.0,225.0
18:17:28,-195.0,256.0,225.0
18:17:28,-195.0,256.0,225.0
18:17:28,-195.0,256.0,225.0
18:17:28,-174.0,260.0,224.0
18:17:28,-174.0,260.0,224.0
18:17:28,-174.0,260.0,224.0
18:17:28,-174.0,260.0,224.0
18:17:28,-154.0,261.0,224.0
18:17:28,-154.0,261.0,224.0
18:17:28,-154.0,261.0,224.0
18:17:28,-154.0,261.0,224.0
18:17:28,-194.0,262.0,224.0
18:17:28,-194.0,262.0,224.0
18:17:28,-194.0,262.0,224.0
18:17:28,-194.0,262.0,224.0
18:17:28,-218.0,258.0,223.0
18:17:28,-218.0,258.0,223.0
18:17:28,-218.0,258.0,223.0
18:17:28,-218.0,258.0,223.0
18:17:28,-105.0,254.0,224.0
18:17:28,-105.0,254.0,224.0
18:17:28,-105.0,254.0,224.0
18:17:28,-105.0,254.0,224.0
18:17:28,-133.0,255.0,224.0
18:17:28,-133.0,255.0,224.0
18:17:28,-133.0,255.0,224.0
18:17:28,-133.0,255.0,224.0
18:17:28,-186.0,255.0,223.0
18:17:28,-186.0,255.0,223.0
18:17:28,-186.0,255.0,223.0
18:17:28,-186.0,255.0,223.0
18:17:28,-143.0,254.0,223.0
18:17:28,-143.0,254.0,223.0
18:17:28,-143.0,254.0,223.0
18:17:28,-143.0,254.0,223.0
18:17:28,-161.0,256.0,224.0
18:17:28,-161.0,256.0,224.0
18:17:28,-161.0,256.0,224.0
18:17:28,-161.0,256.0,224.0
18:17:28,-171.0,254.0,224.0
18:17:28,-171.0,254.0,224.0
18:17:28,-171.0,254.0,224.0
18:17:28,-171.0,254.0,224.0
18:17:28,-130.0,254.0,223.0
18:17:28,-130.0,254.0,223.0
18:17:28,-130.0,254.0,223.0
18:17:28,-130.0,254.0,223.0
18:17:28,-99.0,255.0,224.0
18:17:28,-99.0,255.0,224.0
18:17:28,-99.0,255.0,224.0
18:17:28,-99.0,255.0,224.0
18:17:28,-114.0,253.0,225.0
18:17:28,-114.0,253.0,225.0
18:17:28,-114.0,253.0,225.0
18:17:28,-114.0,253.0,225.0
18:17:28,-150.0,255.0,229.0
18:17:28,-150.0,255.0,229.0
18:17:28,-150.0,255.0,229.0
18:17:28,-150.0,255.0,229.0
18:17:28,-230.0,255.0,227.0
18:17:28,-230.0,255.0,227.0
18:17:28,-230.0,255.0,227.0
18:17:28,-230.0,255.0,227.0
18:17:28,-251.0,254.0,223.0
18:17:28,-251.0,254.0,223.0
18:17:29,-251.0,254.0,223.0
18:17:29,-251.0,254.0,223.0
18:17:29,-196.0,254.0,223.0
18:17:29,-196.0,254.0,223.0
18:17:29,-196.0,254.0,223.0
18:17:29,-196.0,254.0,223.0
18:17:29,-237.0,256.0,222.0
18:17:29,-237.0,256.0,222.0
18:17:29,-237.0,256.0,222.0
18:17:29,-237.0,256.0,222.0
18:17:29,390.0,258.0,223.0
18:17:29,390.0,258.0,223.0
18:17:29,390.0,258.0,223.0
18:17:29,390.0,258.0,223.0
18:17:29,741.0,259.0,221.0
18:17:29,741.0,259.0,221.0
18:17:29,741.0,259.0,221.0
18:17:29,741.0,259.0,221.0
18:17:29,-460.0,255.0,221.0
18:17:29,-460.0,255.0,221.0
18:17:29,-460.0,255.0,221.0
18:17:29,-460.0,255.0,221.0
18:17:29,-304.0,253.0,222.0
18:17:29,-304.0,253.0,222.0
18:17:29,-304.0,253.0,222.0
18:17:29,-304.0,253.0,222.0
18:17:29,-254.0,253.0,222.0
18:17:29,-254.0,253.0,222.0
18:17:29,-254.0,253.0,222.0
18:17:29,-254.0,253.0,222.0
18:17:29,-314.0,252.0,222.0
18:17:29,-314.0,252.0,222.0
18:17:29,-314.0,252.0,222.0
18:17:29,-314.0,252.0,222.0
18:17:29,-255.0,252.0,222.0
18:17:29,-255.0,252.0,222.0
18:17:29,-255.0,252.0,222.0
18:17:29,-255.0,252.0,222.0
18:17:29,-265.0,253.0,221.0
18:17:29,-265.0,253.0,221.0
18:17:29,-265.0,253.0,221.0
18:17:29,-265.0,253.0,221.0
18:17:29,-195.0,252.0,223.0
18:17:29,-195.0,252.0,223.0
18:17:29,-195.0,252.0,223.0
18:17:29,-195.0,252.0,223.0
18:17:29,-201.0,252.0,222.0
18:17:29,-201.0,252.0,222.0
18:17:29,-201.0,252.0,222.0
18:17:29,-201.0,252.0,222.0
18:17:29,-163.0,253.0,221.0
18:17:29,-163.0,253.0,221.0
18:17:29,-163.0,253.0,221.0
18:17:29,-163.0,253.0,221.0
18:17:29,-117.0,252.0,223.0
18:17:29,-117.0,252.0,223.0
18:17:29,-117.0,252.0,223.0
18:17:29,-117.0,252.0,223.0
18:17:29,-87.0,251.0,223.0
18:17:29,-87.0,251.0,223.0
18:17:29,-87.0,251.0,223.0
18:17:29,-87.0,251.0,223.0
18:17:29,-55.0,253.0,221.0
18:17:29,-55.0,253.0,221.0
18:17:29,-55.0,253.0,221.0
18:17:29,-55.0,253.0,221.0
18:17:29,-116.0,253.0,222.0
18:17:29,-116.0,253.0,222.0
18:17:29,-116.0,253.0,222.0
18:17:29,-116.0,253.0,222.0
18:17:29,-197.0,252.0,223.0
18:17:29,-197.0,252.0,223.0
18:17:29,-197.0,252.0,223.0
18:17:29,-197.0,252.0,223.0
18:17:29,-218.0,252.0,222.0
18:17:29,-218.0,252.0,222.0
18:17:29,-218.0,252.0,222.0
18:17:29,-218.0,252.0,222.0
18:17:29,-299.0,254.0,223.0
18:17:29,-299.0,254.0,223.0
18:17:29,-299.0,254.0,223.0
18:17:29,-299.0,254.0,223.0
18:17:29,-291.0,252.0,222.0
18:17:29,-291.0,252.0,222.0
18:17:29,-291.0,252.0,222.0
18:17:29,-291.0,252.0,222.0
18:17:29,-257.0,253.0,222.0
18:17:29,-257.0,253.0,222.0
18:17:29,-257.0,253.0,222.0
18:17:29,-257.0,253.0,222.0
18:17:29,-255.0,253.0,223.0
18:17:29,-255.0,253.0,223.0
18:17:29,-255.0,253.0,223.0
18:17:29,-255.0,253.0,223.0
18:17:29,-253.0,253.0,222.0
18:17:29,-253.0,253.0,222.0
18:17:29,-253.0,253.0,222.0
18:17:29,-253.0,253.0,222.0
18:17:29,-263.0,252.0,221.0
18:17:29,-263.0,252.0,221.0
18:17:29,-263.0,252.0,221.0
18:17:29,-263.0,252.0,221.0
18:17:29,-257.0,253.0,222.0
18:17:29,-257.0,253.0,222.0
18:17:29,-257.0,253.0,222.0
18:17:29,-257.0,253.0,222.0
18:17:29,-231.0,254.0,222.0
18:17:29,-231.0,254.0,222.0
18:17:29,-231.0,254.0,222.0
18:17:29,-231.0,254.0,222.0
18:17:29,-226.0,252.0,221.0
18:17:29,-226.0,252.0,221.0
18:17:29,-226.0,252.0,221.0
18:17:29,-226.0,252.0,221.0
18:17:29,-235.0,253.0,222.0
18:17:29,-235.0,253.0,222.0
18:17:29,-235.0,253.0,222.0
18:17:29,-235.0,253.0,222.0
18:17:29,-188.0,253.0,222.0
18:17:29,-188.0,253.0,222.0
18:17:29,-188.0,253.0,222.0
18:17:29,-188.0,253.0,222.0
18:17:29,-119.0,252.0,221.0
18:17:29,-119.0,252.0,221.0
18:17:29,-119.0,252.0,221.0
18:17:29,-119.0,252.0,221.0
18:17:29,-181.0,253.0,222.0
18:17:29,-181.0,253.0,222.0
18:17:29,-181.0,253.0,222.0
18:17:29,-181.0,253.0,222.0
18:17:29,-193.0,253.0,220.0
18:17:29,-193.0,253.0,220.0
18:17:29,-193.0,253.0,220.0
18:17:29,-193.0,253.0,220.0
18:17:29,-272.0,252.0,217.0
18:17:29,-272.0,252.0,217.0
18:17:29,-272.0,252.0,217.0
18:17:29,-272.0,252.0,217.0
18:17:29,-297.0,254.0,217.0
18:17:29,-297.0,254.0,217.0
18:17:29,-297.0,254.0,217.0
18:17:29,-297.0,254.0,217.0
18:17:29,-268.0,252.0,219.0
18:17:29,-268.0,252.0,219.0
18:17:29,-268.0,252.0,219.0
18:17:29,-268.0,252.0,219.0
18:17:29,-261.0,252.0,220.0
18:17:29,-261.0,252.0,220.0
18:17:29,-261.0,252.0,220.0
18:17:29,-261.0,252.0,220.0
18:17:29,1236.0,250.0,222.0
18:17:29,1236.0,250.0,222.0
18:17:29,1236.0,250.0,222.0
18:17:29,1236.0,250.0,222.0
18:17:29,-259.0,248.0,223.0
18:17:29,-259.0,248.0,223.0
18:17:29,-259.0,248.0,223.0
18:17:29,-259.0,248.0,223.0
18:17:29,-402.0,247.0,222.0
18:17:29,-402.0,247.0,222.0
18:17:29,-402.0,247.0,222.0
18:17:29,-402.0,247.0,222.0
18:17:29,-394.0,250.0,222.0
18:17:29,-394.0,250.0,222.0
18:17:29,-394.0,250.0,222.0
18:17:29,-394.0,250.0,222.0
18:17:29,-393.0,251.0,223.0
18:17:29,-393.0,251.0,223.0
18:17:29,-393.0,251.0,223.0
18:17:29,-393.0,251.0,223.0
18:17:29,-324.0,252.0,222.0
18:17:29,-324.0,252.0,222.0
18:17:29,-324.0,252.0,222.0
18:17:29,-324.0,252.0,222.0
18:17:29,-298.0,253.0,223.0
18:17:29,-298.0,253.0,223.0
18:17:29,-298.0,253.0,223.0
18:17:29,-298.0,253.0,223.0
18:17:29,-333.0,252.0,222.0
18:17:29,-333.0,252.0,222.0
18:17:29,-333.0,252.0,222.0
18:17:29,-333.0,252.0,222.0
18:17:29,-286.0,252.0,221.0
18:17:29,-286.0,252.0,221.0
18:17:29,-286.0,252.0,221.0
18:17:29,-286.0,252.0,221.0
18:17:29,-228.0,253.0,223.0
18:17:29,-228.0,253.0,223.0
18:17:29,-228.0,253.0,223.0
18:17:29,-228.0,253.0,223.0
18:17:29,-209.0,252.0,222.0
18:17:29,-209.0,252.0,222.0
18:17:29,-209.0,252.0,222.0
18:17:29,-209.0,252.0,222.0
18:17:29,-110.0,252.0,222.0
18:17:29,-110.0,252.0,222.0
18:17:29,-110.0,252.0,222.0
18:17:29,-110.0,252.0,222.0
18:17:29,-112.0,254.0,222.0
18:17:29,-112.0,254.0,222.0
18:17:29,-112.0,254.0,222.0
18:17:30,-112.0,254.0,222.0
18:17:30,-93.0,253.0,224.0
18:17:30,-93.0,253.0,224.0
18:17:30,-93.0,253.0,224.0
18:17:30,-93.0,253.0,224.0
18:17:30,-148.0,253.0,219.0
18:17:30,-148.0,253.0,219.0
18:17:30,-148.0,253.0,219.0
18:17:30,-148.0,253.0,219.0
18:17:30,-223.0,255.0,216.0
18:17:30,-223.0,255.0,216.0
18:17:30,-223.0,255.0,216.0
18:17:30,-223.0,255.0,216.0
18:17:30,-221.0,253.0,215.0
18:17:30,-221.0,253.0,215.0
18:17:30,-221.0,253.0,215.0
18:17:30,-221.0,253.0,215.0
18:17:30,-256.0,254.0,218.0
18:17:30,-256.0,254.0,218.0
18:17:30,-256.0,254.0,218.0
18:17:30,-256.0,254.0,218.0
18:17:30,-267.0,253.0,222.0
18:17:30,-267.0,253.0,222.0
18:17:30,-267.0,253.0,222.0
18:17:30,-267.0,253.0,222.0
18:17:30,-245.0,253.0,222.0
18:17:30,-245.0,253.0,222.0
18:17:30,-245.0,253.0,222.0
18:17:30,-245.0,253.0,222.0
18:17:30,-226.0,247.0,222.0
18:17:30,-226.0,247.0,222.0
18:17:30,-226.0,247.0,222.0
18:17:30,-226.0,247.0,222.0
18:17:30,-195.0,246.0,223.0
18:17:30,-195.0,246.0,223.0
18:17:30,-195.0,246.0,223.0
18:17:30,-195.0,246.0,223.0
18:17:30,-219.0,248.0,219.0
18:17:30,-219.0,248.0,219.0
18:17:30,-219.0,248.0,219.0
18:17:30,-219.0,248.0,219.0
18:17:30,-216.0,253.0,215.0
18:17:30,-216.0,253.0,215.0
18:17:30,-216.0,253.0,215.0
18:17:30,-216.0,253.0,215.0
18:17:30,-230.0,253.0,219.0
18:17:30,-230.0,253.0,219.0
18:17:30,-230.0,253.0,219.0
18:17:30,-230.0,253.0,219.0
18:17:30,-234.0,252.0,222.0
18:17:30,-234.0,252.0,222.0
18:17:30,-234.0,252.0,222.0
18:17:30,-234.0,252.0,222.0
18:17:30,-227.0,253.0,223.0
18:17:30,-227.0,253.0,223.0
18:17:30,-227.0,253.0,223.0
18:17:30,-227.0,253.0,223.0
18:17:30,-251.0,250.0,224.0
18:17:30,-251.0,250.0,224.0
18:17:30,-251.0,250.0,224.0
18:17:30,-251.0,250.0,224.0
18:17:30,-277.0,247.0,224.0
18:17:30,-277.0,247.0,224.0
18:17:30,-277.0,247.0,224.0
18:17:30,-277.0,247.0,224.0
18:17:30,-197.0,251.0,222.0
18:17:30,-197.0,251.0,222.0
18:17:30,-197.0,251.0,222.0
18:17:30,-197.0,251.0,222.0
18:17:30,-154.0,256.0,224.0
18:17:30,-154.0,256.0,224.0
18:17:30,-154.0,256.0,224.0
18:17:30,-154.0,256.0,224.0
18:17:30,-99.0,262.0,225.0
18:17:30,-99.0,262.0,225.0
18:17:30,-99.0,262.0,225.0
18:17:30,-99.0,262.0,225.0
18:17:30,-108.0,261.0,226.0
18:17:30,-108.0,261.0,226.0
18:17:30,-108.0,261.0,226.0
18:17:30,-108.0,261.0,226.0
18:17:30,-230.0,260.0,225.0
18:17:30,-230.0,260.0,225.0
18:17:30,-230.0,260.0,225.0
18:17:30,-230.0,260.0,225.0
18:17:30,-295.0,258.0,226.0
18:17:30,-295.0,258.0,226.0
18:17:30,-295.0,258.0,226.0
18:17:30,-295.0,258.0,226.0
18:17:30,-280.0,259.0,225.0
18:17:30,-280.0,259.0,225.0
18:17:30,-280.0,259.0,225.0
18:17:30,-280.0,259.0,225.0
18:17:30,-280.0,259.0,226.0
18:17:30,-280.0,259.0,226.0
18:17:30,-280.0,259.0,226.0
18:17:30,-280.0,259.0,226.0
18:17:30,-301.0,257.0,225.0
18:17:30,-301.0,257.0,225.0
18:17:30,-301.0,257.0,225.0
18:17:30,-301.0,257.0,225.0
18:17:30,-181.0,259.0,226.0
18:17:30,-181.0,259.0,226.0
18:17:30,-181.0,259.0,226.0
18:17:30,-181.0,259.0,226.0
18:17:30,1411.0,258.0,226.0
18:17:30,1411.0,258.0,226.0
18:17:30,1411.0,258.0,226.0
18:17:30,1411.0,258.0,226.0
18:17:30,-529.0,257.0,226.0
18:17:30,-529.0,257.0,226.0
18:17:30,-529.0,257.0,226.0
18:17:30,-529.0,257.0,226.0
18:17:30,-407.0,259.0,225.0
18:17:30,-407.0,259.0,225.0
18:17:30,-407.0,259.0,225.0
18:17:30,-407.0,259.0,225.0
18:17:30,-376.0,259.0,226.0
18:17:30,-376.0,259.0,226.0
18:17:30,-376.0,259.0,226.0
18:17:30,-376.0,259.0,226.0
18:17:30,-353.0,259.0,225.0
18:17:30,-353.0,259.0,225.0
18:17:30,-353.0,259.0,225.0
18:17:30,-353.0,259.0,225.0
18:17:30,-302.0,257.0,224.0
18:17:30,-302.0,257.0,224.0
18:17:30,-302.0,257.0,224.0
18:17:30,-302.0,257.0,224.0
18:17:30,-284.0,259.0,226.0
18:17:30,-284.0,259.0,226.0
18:17:30,-284.0,259.0,226.0
18:17:30,-284.0,259.0,226.0
18:17:30,-254.0,258.0,226.0
18:17:30,-254.0,258.0,226.0
18:17:30,-254.0,258.0,226.0
18:17:30,-254.0,258.0,226.0
18:17:30,-258.0,256.0,225.0
18:17:30,-258.0,256.0,225.0
18:17:30,-258.0,256.0,225.0
18:17:30,-258.0,256.0,225.0
18:17:30,-207.0,258.0,226.0
18:17:30,-207.0,258.0,226.0
18:17:30,-207.0,258.0,226.0
18:17:30,-207.0,258.0,226.0
18:17:30,-118.0,258.0,226.0
18:17:30,-118.0,258.0,226.0
18:17:30,-118.0,258.0,226.0
18:17:30,-118.0,258.0,226.0
18:17:30,-43.0,255.0,225.0
18:17:30,-43.0,255.0,225.0
18:17:30,-43.0,255.0,225.0
18:17:30,-43.0,255.0,225.0
18:17:30,-27.0,257.0,227.0
18:17:30,-27.0,257.0,227.0
18:17:30,-27.0,257.0,227.0
18:17:30,-27.0,257.0,227.0
18:17:30,12.0,257.0,226.0
18:17:30,12.0,257.0,226.0
18:17:30,12.0,257.0,226.0
18:17:30,12.0,257.0,226.0
18:17:30,-74.0,257.0,225.0
18:17:30,-74.0,257.0,225.0
18:17:30,-74.0,257.0,225.0
18:17:30,-74.0,257.0,225.0
18:17:30,-160.0,257.0,225.0
18:17:30,-160.0,257.0,225.0
18:17:30,-160.0,257.0,225.0
18:17:30,-160.0,257.0,225.0
18:17:30,-202.0,256.0,226.0
18:17:30,-202.0,256.0,226.0
18:17:30,-202.0,256.0,226.0
18:17:30,-202.0,256.0,226.0
18:17:30,-235.0,256.0,226.0
18:17:30,-235.0,256.0,226.0
18:17:30,-235.0,256.0,226.0
18:17:30,-235.0,256.0,226.0
18:17:30,-222.0,257.0,225.0
18:17:30,-222.0,257.0,225.0
18:17:30,-222.0,257.0,225.0
18:17:30,-222.0,257.0,225.0
18:17:30,-225.0,257.0,225.0
18:17:30,-225.0,257.0,225.0
18:17:30,-225.0,257.0,225.0
18:17:30,-225.0,257.0,225.0
18:17:30,-219.0,258.0,226.0
18:17:30,-219.0,258.0,226.0
18:17:30,-219.0,258.0,226.0
18:17:30,-219.0,258.0,226.0
18:17:30,-186.0,257.0,226.0
18:17:30,-186.0,257.0,226.0
18:17:30,-186.0,257.0,226.0
18:17:30,-186.0,257.0,226.0
18:17:30,-244.0,257.0,225.0
18:17:30,-244.0,257.0,225.0
18:17:30,-244.0,257.0,225.0
18:17:30,-244.0,257.0,225.0
18:17:30,-208.0,257.0,226.0
18:17:30,-208.0,257.0,226.0
18:17:30,-208.0,257.0,226.0
18:17:30,-208.0,257.0,226.0
18:17:31,-228.0,257.0,225.0
18:17:31,-228.0,257.0,225.0
18:17:31,-228.0,257.0,225.0
18:17:31,-228.0,257.0,225.0
18:17:31,-224.0,256.0,225.0
18:17:31,-224.0,256.0,225.0
18:17:31,-224.0,256.0,225.0
18:17:31,-224.0,256.0,225.0
18:17:31,-213.0,257.0,226.0
18:17:31,-213.0,257.0,226.0
18:17:31,-213.0,257.0,226.0
18:17:31,-213.0,257.0,226.0
18:17:31,-212.0,257.0,225.0
18:17:31,-212.0,257.0,225.0
18:17:31,-212.0,257.0,225.0
18:17:31,-212.0,257.0,225.0
18:17:31,-141.0,256.0,226.0
18:17:31,-141.0,256.0,226.0
18:17:31,-141.0,256.0,226.0
18:17:31,-141.0,256.0,226.0
18:17:31,-144.0,255.0,225.0
18:17:31,-144.0,255.0,225.0
18:17:31,-144.0,255.0,225.0
18:17:31,-144.0,255.0,225.0
18:17:31,-79.0,258.0,225.0
18:17:31,-79.0,258.0,225.0
18:17:31,-79.0,258.0,225.0
18:17:31,-79.0,258.0,225.0
18:17:31,-147.0,257.0,226.0
18:17:31,-147.0,257.0,226.0
18:17:31,-147.0,257.0,226.0
18:17:31,-147.0,257.0,226.0
18:17:31,-293.0,257.0,225.0
18:17:31,-293.0,257.0,225.0
18:17:31,-293.0,257.0,225.0
18:17:31,-293.0,257.0,225.0
18:17:31,-237.0,258.0,225.0
18:17:31,-237.0,258.0,225.0
18:17:31,-237.0,258.0,225.0
18:17:31,-237.0,258.0,225.0
18:17:31,-257.0,256.0,226.0
18:17:31,-257.0,256.0,226.0
18:17:31,-257.0,256.0,226.0
18:17:31,-257.0,256.0,226.0
18:17:31,-257.0,257.0,227.0
18:17:31,-257.0,257.0,227.0
18:17:31,-257.0,257.0,227.0
18:17:31,-257.0,257.0,227.0
18:17:31,-284.0,257.0,225.0
18:17:31,-284.0,257.0,225.0
18:17:31,-284.0,257.0,225.0
18:17:31,-284.0,257.0,225.0
18:17:31,936.0,257.0,225.0
18:17:31,936.0,257.0,225.0
18:17:31,936.0,257.0,225.0
18:17:31,936.0,257.0,225.0
18:17:31,77.0,257.0,226.0
18:17:31,77.0,257.0,226.0
18:17:31,77.0,257.0,226.0
18:17:31,77.0,257.0,226.0
18:17:31,-364.0,258.0,225.0
18:17:31,-364.0,258.0,225.0
18:17:31,-364.0,258.0,225.0
18:17:31,-364.0,258.0,225.0
18:17:31,-358.0,256.0,226.0
18:17:31,-358.0,256.0,226.0
18:17:31,-358.0,256.0,226.0
18:17:31,-358.0,256.0,226.0
18:17:31,-284.0,256.0,225.0
18:17:31,-284.0,256.0,225.0
18:17:31,-284.0,256.0,225.0
18:17:31,-284.0,256.0,225.0
18:17:31,-262.0,257.0,225.0
18:17:31,-262.0,257.0,225.0
18:17:31,-262.0,257.0,225.0
18:17:31,-262.0,257.0,225.0
18:17:31,-276.0,256.0,226.0
18:17:31,-276.0,256.0,226.0
18:17:31,-276.0,256.0,226.0
18:17:31,-276.0,256.0,226.0
18:17:31,-244.0,256.0,227.0
18:17:31,-244.0,256.0,227.0
18:17:31,-244.0,256.0,227.0
18:17:31,-244.0,256.0,227.0
18:17:31,-244.0,256.0,226.0
18:17:31,-244.0,256.0,226.0
18:17:31,-244.0,256.0,226.0
18:17:31,-244.0,256.0,226.0
18:17:31,-249.0,255.0,226.0
18:17:31,-249.0,255.0,226.0
18:17:31,-249.0,255.0,226.0
18:17:31,-249.0,255.0,226.0
18:17:31,-214.0,257.0,226.0
18:17:31,-214.0,257.0,226.0
18:17:31,-214.0,257.0,226.0
18:17:31,-214.0,257.0,226.0
18:17:31,-166.0,257.0,226.0
18:17:31,-166.0,257.0,226.0
18:17:31,-166.0,257.0,226.0
18:17:31,-166.0,257.0,226.0
18:17:31,-117.0,257.0,226.0
18:17:31,-117.0,257.0,226.0
18:17:31,-117.0,257.0,226.0
18:17:31,-117.0,257.0,226.0
18:17:31,-156.0,256.0,227.0
18:17:31,-156.0,256.0,227.0
18:17:31,-156.0,256.0,227.0
18:17:31,-156.0,256.0,227.0
18:17:31,-157.0,257.0,225.0
18:17:31,-157.0,257.0,225.0
18:17:31,-157.0,257.0,225.0
18:17:31,-157.0,257.0,225.0
18:17:31,-156.0,257.0,227.0
18:17:31,-156.0,257.0,227.0
18:17:31,-156.0,257.0,227.0
18:17:31,-156.0,257.0,227.0
18:17:31,-255.0,257.0,226.0
18:17:31,-255.0,257.0,226.0
18:17:31,-255.0,257.0,226.0
18:17:31,-255.0,257.0,226.0
18:17:31,-224.0,258.0,226.0
18:17:31,-224.0,258.0,226.0
18:17:31,-224.0,258.0,226.0
18:17:31,-224.0,258.0,226.0
18:17:31,-204.0,257.0,228.0
18:17:31,-204.0,257.0,228.0
18:17:31,-204.0,257.0,228.0
18:17:31,-204.0,257.0,228.0
18:17:31,-219.0,258.0,231.0
18:17:31,-219.0,258.0,231.0
18:17:31,-219.0,258.0,231.0
18:17:31,-219.0,258.0,231.0
18:17:31,-255.0,257.0,232.0
18:17:31,-255.0,257.0,232.0
18:17:31,-255.0,257.0,232.0
18:17:31,-255.0,257.0,232.0
18:17:31,-154.0,257.0,230.0
18:17:31,-154.0,257.0,230.0
18:17:31,-154.0,257.0,230.0
18:17:31,-154.0,257.0,230.0
18:17:31,-163.0,258.0,226.0
18:17:31,-163.0,258.0,226.0
18:17:31,-163.0,258.0,226.0
18:17:31,-163.0,258.0,226.0
18:17:31,-203.0,259.0,227.0
18:17:31,-203.0,259.0,227.0
18:17:31,-203.0,259.0,227.0
18:17:31,-203.0,259.0,227.0
18:17:31,-252.0,261.0,227.0
18:17:31,-252.0,261.0,227.0
18:17:31,-252.0,261.0,227.0
18:17:31,-252.0,261.0,227.0
18:17:31,-173.0,264.0,224.0
18:17:31,-173.0,264.0,224.0
18:17:31,-173.0,264.0,224.0
18:17:31,-173.0,264.0,224.0
18:17:31,-179.0,261.0,226.0
18:17:31,-179.0,261.0,226.0
18:17:31,-179.0,261.0,226.0
18:17:31,-179.0,261.0,226.0
18:17:31,-108.0,257.0,225.0
18:17:31,-108.0,257.0,225.0
18:17:31,-108.0,257.0,225.0
18:17:31,-108.0,257.0,225.0
18:17:31,-150.0,256.0,225.0
18:17:31,-150.0,256.0,225.0
18:17:31,-150.0,256.0,225.0
18:17:31,-150.0,256.0,225.0
18:17:31,-91.0,257.0,225.0
18:17:31,-91.0,257.0,225.0
18:17:31,-91.0,257.0,225.0
18:17:31,-91.0,257.0,225.0
18:17:31,-204.0,257.0,226.0
18:17:31,-204.0,257.0,226.0
18:17:31,-204.0,257.0,226.0
18:17:31,-204.0,257.0,226.0
18:17:31,-149.0,256.0,230.0
18:17:31,-149.0,256.0,230.0
18:17:31,-149.0,256.0,230.0
18:17:31,-149.0,256.0,230.0
18:17:31,-186.0,256.0,233.0
18:17:31,-186.0,256.0,233.0
18:17:31,-186.0,256.0,233.0
18:17:31,-186.0,256.0,233.0
18:17:31,-138.0,256.0,231.0
18:17:31,-138.0,256.0,231.0
18:17:31,-138.0,256.0,231.0
18:17:31,-138.0,256.0,231.0
18:17:31,130.0,255.0,227.0
18:17:31,130.0,255.0,227.0
18:17:31,130.0,255.0,227.0
18:17:31,130.0,255.0,227.0
18:17:31,894.0,257.0,225.0
18:17:31,894.0,257.0,225.0
18:17:31,894.0,257.0,225.0
18:17:31,894.0,257.0,225.0
18:17:31,-453.0,258.0,224.0
18:17:31,-453.0,258.0,224.0
18:17:31,-453.0,258.0,224.0
18:17:31,-453.0,258.0,224.0
18:17:31,-257.0,262.0,224.0
18:17:32,-257.0,262.0,224.0
18:17:32,-257.0,262.0,224.0
18:17:32,-257.0,262.0,224.0
18:17:32,-181.0,264.0,224.0
18:17:32,-181.0,264.0,224.0
18:17:32,-181.0,264.0,224.0
18:17:32,-181.0,264.0,224.0
18:17:32,-223.0,259.0,223.0
18:17:32,-223.0,259.0,223.0
18:17:32,-223.0,259.0,223.0
18:17:32,-223.0,259.0,223.0
18:17:32,-136.0,257.0,223.0
18:17:32,-136.0,257.0,223.0
18:17:32,-136.0,257.0,223.0
18:17:32,-136.0,257.0,223.0
18:17:32,-234.0,257.0,223.0
18:17:32,-234.0,257.0,223.0
18:17:32,-234.0,257.0,223.0
18:17:32,-234.0,257.0,223.0
18:17:32,-154.0,253.0,223.0
18:17:32,-154.0,253.0,223.0
18:17:32,-154.0,253.0,223.0
18:17:32,-154.0,253.0,223.0
18:17:32,-151.0,255.0,224.0
18:17:32,-151.0,255.0,224.0
18:17:32,-151.0,255.0,224.0
18:17:32,-151.0,255.0,224.0
18:17:32,-40.0,255.0,223.0
18:17:32,-40.0,255.0,223.0
18:17:32,-40.0,255.0,223.0
18:17:32,-40.0,255.0,223.0
18:17:32,-35.0,253.0,224.0
18:17:32,-35.0,253.0,224.0
18:17:32,-35.0,253.0,224.0
18:17:32,-35.0,253.0,224.0
18:17:32,-37.0,255.0,224.0
18:17:32,-37.0,255.0,224.0
18:17:32,-37.0,255.0,224.0
18:17:32,-37.0,255.0,224.0
18:17:32,-21.0,254.0,223.0
18:17:32,-21.0,254.0,223.0
18:17:32,-21.0,254.0,223.0
18:17:32,-21.0,254.0,223.0
18:17:32,-89.0,254.0,224.0
18:17:32,-89.0,254.0,224.0
18:17:32,-89.0,254.0,224.0
18:17:32,-89.0,254.0,224.0
18:17:32,-72.0,255.0,226.0
18:17:32,-72.0,255.0,226.0
18:17:32,-72.0,255.0,226.0
18:17:32,-72.0,255.0,226.0
18:17:32,-107.0,256.0,229.0
18:17:32,-107.0,256.0,229.0
18:17:32,-107.0,256.0,229.0
18:17:32,-107.0,256.0,229.0
18:17:32,-74.0,255.0,227.0
18:17:32,-74.0,255.0,227.0
18:17:32,-74.0,255.0,227.0
18:17:32,-74.0,255.0,227.0
18:17:32,-67.0,254.0,224.0
18:17:32,-67.0,254.0,224.0
18:17:32,-67.0,254.0,224.0
18:17:32,-67.0,254.0,224.0
18:17:32,-100.0,255.0,223.0
18:17:32,-100.0,255.0,223.0
18:17:32,-100.0,255.0,223.0
18:17:32,-100.0,255.0,223.0
18:17:32,-78.0,255.0,221.0
18:17:32,-78.0,255.0,221.0
18:17:32,-78.0,255.0,221.0
18:17:32,-78.0,255.0,221.0
18:17:32,-47.0,258.0,222.0
18:17:32,-47.0,258.0,222.0
18:17:32,-47.0,258.0,222.0
18:17:32,-47.0,258.0,222.0
18:17:32,-73.0,259.0,222.0
18:17:32,-73.0,259.0,222.0
18:17:32,-73.0,259.0,222.0
18:17:32,-73.0,259.0,222.0
18:17:32,-32.0,256.0,222.0
18:17:32,-32.0,256.0,222.0
18:17:32,-32.0,256.0,222.0
18:17:32,-32.0,256.0,222.0
18:17:32,-106.0,253.0,222.0
18:17:32,-106.0,253.0,222.0
18:17:32,-106.0,253.0,222.0
18:17:32,-106.0,253.0,222.0
18:17:32,-129.0,254.0,223.0
18:17:32,-129.0,254.0,223.0
18:17:32,-129.0,254.0,223.0
18:17:32,-129.0,254.0,223.0
18:17:32,-143.0,253.0,221.0
18:17:32,-143.0,253.0,221.0
18:17:32,-143.0,253.0,221.0
18:17:32,-143.0,253.0,221.0
18:17:32,-55.0,254.0,222.0
18:17:32,-55.0,254.0,222.0
18:17:32,-55.0,254.0,222.0
18:17:32,-55.0,254.0,222.0
18:17:32,-5.0,254.0,222.0
18:17:32,-5.0,254.0,222.0
18:17:32,-5.0,254.0,222.0
18:17:32,-5.0,254.0,222.0
18:17:32,-110.0,252.0,222.0
18:17:32,-110.0,252.0,222.0
18:17:32,-110.0,252.0,222.0
18:17:32,-110.0,252.0,222.0
18:17:32,-116.0,252.0,222.0
18:17:32,-116.0,252.0,222.0
18:17:32,-116.0,252.0,222.0
18:17:32,-116.0,252.0,222.0
18:17:32,-177.0,253.0,222.0
18:17:32,-177.0,253.0,222.0
18:17:32,-177.0,253.0,222.0
18:17:32,-177.0,253.0,222.0
18:17:32,-168.0,253.0,221.0
18:17:32,-168.0,253.0,221.0
18:17:32,-168.0,253.0,221.0
18:17:32,-168.0,253.0,221.0
18:17:32,-182.0,253.0,222.0
18:17:32,-182.0,253.0,222.0
18:17:32,-182.0,253.0,222.0
18:17:32,-182.0,253.0,222.0
18:17:32,-159.0,253.0,221.0
18:17:32,-159.0,253.0,221.0
18:17:32,-159.0,253.0,221.0
18:17:32,-159.0,253.0,221.0
18:17:32,550.0,252.0,222.0
18:17:32,550.0,252.0,222.0
18:17:32,550.0,252.0,222.0
18:17:32,550.0,252.0,222.0
18:17:32,267.0,255.0,223.0
18:17:32,267.0,255.0,223.0
18:17:32,267.0,255.0,223.0
18:17:32,267.0,255.0,223.0
18:17:32,-395.0,253.0,222.0
18:17:32,-395.0,253.0,222.0
18:17:32,-395.0,253.0,222.0
18:17:32,-395.0,253.0,222.0
18:17:32,-244.0,254.0,222.0
18:17:32,-244.0,254.0,222.0
18:17:32,-244.0,254.0,222.0
18:17:32,-244.0,254.0,222.0
18:17:32,-249.0,253.0,222.0
18:17:32,-249.0,253.0,222.0
18:17:32,-249.0,253.0,222.0
18:17:32,-249.0,253.0,222.0
18:17:32,-150.0,253.0,222.0
18:17:32,-150.0,253.0,222.0
18:17:32,-150.0,253.0,222.0
18:17:32,-150.0,253.0,222.0
18:17:32,-178.0,253.0,222.0
18:17:32,-178.0,253.0,222.0
18:17:32,-178.0,253.0,222.0
18:17:32,-178.0,253.0,222.0
18:17:32,-203.0,254.0,223.0
18:17:32,-203.0,254.0,223.0
18:17:32,-203.0,254.0,223.0
18:17:32,-203.0,254.0,223.0
18:17:32,-76.0,253.0,222.0
18:17:32,-76.0,253.0,222.0
18:17:32,-76.0,253.0,222.0
18:17:32,-76.0,253.0,222.0
18:17:32,-133.0,252.0,223.0
18:17:32,-133.0,252.0,223.0
18:17:32,-133.0,252.0,223.0
18:17:32,-133.0,252.0,223.0
18:17:32,-183.0,253.0,223.0
18:17:32,-183.0,253.0,223.0
18:17:32,-183.0,253.0,223.0
18:17:32,-183.0,253.0,223.0
18:17:32,-153.0,252.0,222.0
18:17:32,-153.0,252.0,222.0
18:17:32,-153.0,252.0,222.0
18:17:32,-153.0,252.0,222.0
18:17:32,-45.0,253.0,222.0
18:17:32,-45.0,253.0,222.0
18:17:32,-45.0,253.0,222.0
18:17:32,-45.0,253.0,222.0
18:17:32,-106.0,253.0,223.0
18:17:32,-106.0,253.0,223.0
18:17:32,-106.0,253.0,223.0
18:17:32,-106.0,253.0,223.0
18:17:32,-109.0,253.0,222.0
18:17:32,-109.0,253.0,222.0
18:17:32,-109.0,253.0,222.0
18:17:32,-109.0,253.0,222.0
18:17:32,-220.0,251.0,221.0
18:17:32,-220.0,251.0,221.0
18:17:32,-220.0,251.0,221.0
18:17:32,-220.0,251.0,221.0
18:17:32,-247.0,254.0,220.0
18:17:32,-247.0,254.0,220.0
18:17:32,-247.0,254.0,220.0
18:17:32,-247.0,254.0,220.0
18:17:32,-253.0,252.0,219.0
18:17:32,-253.0,252.0,219.0
18:17:32,-253.0,252.0,219.0
18:17:32,-253.0,252.0,219.0
18:17:32,-238.0,251.0,218.0
18:17:32,-238.0,251.0,218.0
18:17:33,-238.0,251.0,218.0
18:17:33,-238.0,251.0,218.0
18:17:33,-341.0,253.0,219.0
18:17:33,-341.0,253.0,219.0
18:17:33,-341.0,253.0,219.0
18:17:33,-341.0,253.0,219.0
18:17:33,-313.0,253.0,219.0
18:17:33,-313.0,253.0,219.0
18:17:33,-313.0,253.0,219.0
18:17:33,-313.0,253.0,219.0
18:17:33,-406.0,253.0,221.0
18:17:33,-406.0,253.0,221.0
18:17:33,-406.0,253.0,221.0
18:17:33,-406.0,253.0,221.0
18:17:33,-423.0,252.0,223.0
18:17:33,-423.0,252.0,223.0
18:17:33,-423.0,252.0,223.0
18:17:33,-423.0,252.0,223.0
18:17:33,-468.0,250.0,222.0
18:17:33,-468.0,250.0,222.0
18:17:33,-468.0,250.0,222.0
18:17:33,-468.0,250.0,222.0
18:17:33,-453.0,249.0,222.0
18:17:33,-453.0,249.0,222.0
18:17:33,-453.0,249.0,222.0
18:17:33,-453.0,249.0,222.0
18:17:33,-475.0,250.0,221.0
18:17:33,-475.0,250.0,221.0
18:17:33,-475.0,250.0,221.0
18:17:33,-475.0,250.0,221.0
18:17:33,-553.0,251.0,222.0
18:17:33,-553.0,251.0,222.0
18:17:33,-553.0,251.0,222.0
18:17:33,-553.0,251.0,222.0
18:17:33,-502.0,251.0,222.0
18:17:33,-502.0,251.0,222.0
18:17:33,-502.0,251.0,222.0
18:17:33,-502.0,251.0,222.0
18:17:33,-384.0,254.0,221.0
18:17:33,-384.0,254.0,221.0
18:17:33,-384.0,254.0,221.0
18:17:33,-384.0,254.0,221.0
18:17:33,-365.0,253.0,223.0
18:17:33,-365.0,253.0,223.0
18:17:33,-365.0,253.0,223.0
18:17:33,-365.0,253.0,223.0
18:17:33,-426.0,253.0,223.0
18:17:33,-426.0,253.0,223.0
18:17:33,-426.0,253.0,223.0
18:17:33,-426.0,253.0,223.0
18:17:33,-427.0,253.0,222.0
18:17:33,-427.0,253.0,222.0
18:17:33,-427.0,253.0,222.0
18:17:33,-427.0,253.0,222.0
18:17:33,-421.0,252.0,223.0
18:17:33,-421.0,252.0,223.0
18:17:33,-421.0,252.0,223.0
18:17:33,-421.0,252.0,223.0
18:17:33,-597.0,252.0,223.0
18:17:33,-597.0,252.0,223.0
18:17:33,-597.0,252.0,223.0
18:17:33,-597.0,252.0,223.0
18:17:33,-467.0,253.0,222.0
18:17:33,-467.0,253.0,222.0
18:17:33,-467.0,253.0,222.0
18:17:33,-467.0,253.0,222.0
18:17:33,-313.0,252.0,223.0
18:17:33,-313.0,252.0,223.0
18:17:33,-313.0,252.0,223.0
18:17:33,-313.0,252.0,223.0
18:17:33,1035.0,252.0,221.0
18:17:33,1035.0,252.0,221.0
18:17:33,1035.0,252.0,221.0
18:17:33,1035.0,252.0,221.0
18:17:33,-648.0,254.0,217.0
18:17:33,-648.0,254.0,217.0
18:17:33,-648.0,254.0,217.0
18:17:33,-648.0,254.0,217.0
18:17:33,-571.0,253.0,213.0
18:17:33,-571.0,253.0,213.0
18:17:33,-571.0,253.0,213.0
18:17:33,-571.0,253.0,213.0
18:17:33,-553.0,253.0,220.0
18:17:33,-553.0,253.0,220.0
18:17:33,-553.0,253.0,220.0
18:17:33,-553.0,253.0,220.0
18:17:33,-509.0,253.0,223.0
18:17:33,-509.0,253.0,223.0
18:17:33,-509.0,253.0,223.0
18:17:33,-509.0,253.0,223.0
18:17:33,-491.0,253.0,223.0
18:17:33,-491.0,253.0,223.0
18:17:33,-491.0,253.0,223.0
18:17:33,-491.0,253.0,223.0
18:17:33,-443.0,248.0,222.0
18:17:33,-443.0,248.0,222.0
18:17:33,-443.0,248.0,222.0
18:17:33,-443.0,248.0,222.0
18:17:33,-404.0,246.0,222.0
18:17:33,-404.0,246.0,222.0
18:17:33,-404.0,246.0,222.0
18:17:33,-404.0,246.0,222.0
18:17:33,-398.0,248.0,222.0
18:17:33,-398.0,248.0,222.0
18:17:33,-398.0,248.0,222.0
18:17:33,-398.0,248.0,222.0
18:17:33,-423.0,251.0,219.0
18:17:33,-423.0,251.0,219.0
18:17:33,-423.0,251.0,219.0
18:17:33,-423.0,251.0,219.0
18:17:33,-336.0,253.0,216.0
18:17:33,-336.0,253.0,216.0
18:17:33,-336.0,253.0,216.0
18:17:33,-336.0,253.0,216.0
18:17:33,-324.0,253.0,219.0
18:17:33,-324.0,253.0,219.0
18:17:33,-324.0,253.0,219.0
18:17:33,-324.0,253.0,219.0
18:17:33,-316.0,252.0,223.0
18:17:33,-316.0,252.0,223.0
18:17:33,-316.0,252.0,223.0
18:17:33,-316.0,252.0,223.0
18:17:33,-288.0,254.0,225.0
18:17:33,-288.0,254.0,225.0
18:17:33,-288.0,254.0,225.0
18:17:33,-288.0,254.0,225.0
18:17:33,-289.0,251.0,225.0
18:17:33,-289.0,251.0,225.0
18:17:33,-289.0,251.0,225.0
18:17:33,-289.0,251.0,225.0
18:17:33,-423.0,246.0,225.0
18:17:33,-423.0,246.0,225.0
18:17:33,-423.0,246.0,225.0
18:17:33,-423.0,246.0,225.0
18:17:33,-344.0,250.0,224.0
18:17:33,-344.0,250.0,224.0
18:17:33,-344.0,250.0,224.0
18:17:33,-344.0,250.0,224.0
18:17:33,-420.0,253.0,225.0
18:17:33,-420.0,253.0,225.0
18:17:33,-420.0,253.0,225.0
18:17:33,-420.0,253.0,225.0
18:17:33,-341.0,255.0,226.0
18:17:33,-341.0,255.0,226.0
18:17:33,-341.0,255.0,226.0
18:17:33,-341.0,255.0,226.0
18:17:33,-297.0,255.0,224.0
18:17:33,-297.0,255.0,224.0
18:17:33,-297.0,255.0,224.0
18:17:33,-297.0,255.0,224.0
18:17:33,-329.0,256.0,226.0
18:17:33,-329.0,256.0,226.0
18:17:33,-329.0,256.0,226.0
18:17:33,-329.0,256.0,226.0
18:17:33,-350.0,256.0,225.0
18:17:33,-350.0,256.0,225.0
18:17:33,-350.0,256.0,225.0
18:17:33,-350.0,256.0,225.0
18:17:33,-305.0,256.0,225.0
18:17:33,-305.0,256.0,225.0
18:17:33,-305.0,256.0,225.0
18:17:33,-305.0,256.0,225.0
18:17:33,-255.0,256.0,226.0
18:17:33,-255.0,256.0,226.0
18:17:33,-255.0,256.0,226.0
18:17:33,-255.0,256.0,226.0
18:17:33,-387.0,256.0,226.0
18:17:33,-387.0,256.0,226.0
18:17:33,-387.0,256.0,226.0
18:17:33,-387.0,256.0,226.0
18:17:33,-348.0,256.0,225.0
18:17:33,-348.0,256.0,225.0
18:17:33,-348.0,256.0,225.0
18:17:33,-348.0,256.0,225.0
18:17:33,-393.0,257.0,225.0
18:17:33,-393.0,257.0,225.0
18:17:33,-393.0,257.0,225.0
18:17:33,-393.0,257.0,225.0
18:17:33,-350.0,255.0,226.0
18:17:33,-350.0,255.0,226.0
18:17:33,-350.0,255.0,226.0
18:17:33,-350.0,255.0,226.0
18:17:33,-380.0,256.0,225.0
18:17:33,-380.0,256.0,225.0
18:17:33,-380.0,256.0,225.0
18:17:33,-380.0,256.0,225.0
18:17:33,-347.0,257.0,226.0
18:17:33,-347.0,257.0,226.0
18:17:33,-347.0,257.0,226.0
18:17:33,-347.0,257.0,226.0
18:17:33,-355.0,256.0,226.0
18:17:33,-355.0,256.0,226.0
18:17:33,-355.0,256.0,226.0
18:17:33,-355.0,256.0,226.0
18:17:33,-274.0,255.0,225.0
18:17:33,-274.0,255.0,225.0
18:17:33,-274.0,255.0,225.0
18:17:33,-274.0,255.0,225.0
18:17:33,-211.0,257.0,226.0
18:17:33,-211.0,257.0,226.0
18:17:33,-211.0,257.0,226.0
18:17:34,-211.0,257.0,226.0
18:17:34,-171.0,255.0,226.0
18:17:34,-171.0,255.0,226.0
18:17:34,-171.0,255.0,226.0
18:17:34,-171.0,255.0,226.0
18:17:34,-172.0,255.0,226.0
18:17:34,-172.0,255.0,226.0
18:17:34,-172.0,255.0,226.0
18:17:34,-172.0,255.0,226.0
18:17:34,-168.0,257.0,226.0
18:17:34,-168.0,257.0,226.0
18:17:34,-168.0,257.0,226.0
18:17:34,-168.0,257.0,226.0
18:17:34,-202.0,256.0,225.0
18:17:34,-202.0,256.0,225.0
18:17:34,-202.0,256.0,225.0
18:17:34,-202.0,256.0,225.0
18:17:34,-263.0,257.0,227.0
18:17:34,-263.0,257.0,227.0
18:17:34,-263.0,257.0,227.0
18:17:34,-263.0,257.0,227.0
18:17:34,-281.0,256.0,226.0
18:17:34,-281.0,256.0,226.0
18:17:34,-281.0,256.0,226.0
18:17:34,-281.0,256.0,226.0
18:17:34,-268.0,255.0,226.0
18:17:34,-268.0,255.0,226.0
18:17:34,-268.0,255.0,226.0
18:17:34,-268.0,255.0,226.0
18:17:34,-215.0,256.0,225.0
18:17:34,-215.0,256.0,225.0
18:17:34,-215.0,256.0,225.0
18:17:34,-215.0,256.0,225.0
18:17:34,1324.0,256.0,225.0
18:17:34,1324.0,256.0,225.0
18:17:34,1324.0,256.0,225.0
18:17:34,1324.0,256.0,225.0
18:17:34,-549.0,256.0,226.0
18:17:34,-549.0,256.0,226.0
18:17:34,-549.0,256.0,226.0
18:17:34,-549.0,256.0,226.0
18:17:34,-381.0,256.0,226.0
18:17:34,-381.0,256.0,226.0
18:17:34,-381.0,256.0,226.0
18:17:34,-381.0,256.0,226.0
18:17:34,-359.0,257.0,225.0
18:17:34,-359.0,257.0,225.0
18:17:34,-359.0,257.0,225.0
18:17:34,-359.0,257.0,225.0
18:17:34,-289.0,255.0,226.0
18:17:34,-289.0,255.0,226.0
18:17:34,-289.0,255.0,226.0
18:17:34,-289.0,255.0,226.0
18:17:34,-227.0,256.0,225.0
18:17:34,-227.0,256.0,225.0
18:17:34,-227.0,256.0,225.0
18:17:34,-227.0,256.0,225.0
18:17:34,-196.0,257.0,227.0
18:17:34,-196.0,257.0,227.0
18:17:34,-196.0,257.0,227.0
18:17:34,-196.0,257.0,227.0
18:17:34,-202.0,255.0,226.0
18:17:34,-202.0,255.0,226.0
18:17:34,-202.0,255.0,226.0
18:17:34,-202.0,255.0,226.0
18:17:34,-136.0,256.0,225.0
18:17:34,-136.0,256.0,225.0
18:17:34,-136.0,256.0,225.0
18:17:34,-136.0,256.0,225.0
18:17:34,-93.0,257.0,225.0
18:17:34,-93.0,257.0,225.0
18:17:34,-93.0,257.0,225.0
18:17:34,-93.0,257.0,225.0
18:17:34,-35.0,256.0,226.0
18:17:34,-35.0,256.0,226.0
18:17:34,-35.0,256.0,226.0
18:17:34,-35.0,256.0,226.0
18:17:34,2.0,255.0,227.0
18:17:34,2.0,255.0,227.0
18:17:34,2.0,255.0,227.0
18:17:34,2.0,255.0,227.0
18:17:34,61.0,257.0,225.0
18:17:34,61.0,257.0,225.0
18:17:34,61.0,257.0,225.0
18:17:34,61.0,257.0,225.0
18:17:34,41.0,256.0,226.0
18:17:34,41.0,256.0,226.0
18:17:34,41.0,256.0,226.0
18:17:34,41.0,256.0,226.0
18:17:34,90.0,257.0,225.0
18:17:34,90.0,257.0,225.0
18:17:34,90.0,257.0,225.0
18:17:34,90.0,257.0,225.0
18:17:34,-36.0,257.0,227.0
18:17:34,-36.0,257.0,227.0
18:17:34,-36.0,257.0,227.0
18:17:34,-36.0,257.0,227.0
18:17:34,-124.0,256.0,226.0
18:17:34,-124.0,256.0,226.0
18:17:34,-124.0,256.0,226.0
18:17:34,-124.0,256.0,226.0
18:17:34,-138.0,258.0,225.0
18:17:34,-138.0,258.0,225.0
18:17:34,-138.0,258.0,225.0
18:17:34,-138.0,258.0,225.0
18:17:34,-161.0,255.0,226.0
18:17:34,-161.0,255.0,226.0
18:17:34,-161.0,255.0,226.0
18:17:34,-161.0,255.0,226.0
18:17:34,-167.0,256.0,227.0
18:17:34,-167.0,256.0,227.0
18:17:34,-167.0,256.0,227.0
18:17:34,-167.0,256.0,227.0
18:17:34,-168.0,257.0,225.0
18:17:34,-168.0,257.0,225.0
18:17:34,-168.0,257.0,225.0
18:17:34,-168.0,257.0,225.0
18:17:34,-222.0,257.0,226.0
18:17:34,-222.0,257.0,226.0
18:17:34,-222.0,257.0,226.0
18:17:34,-222.0,257.0,226.0
18:17:34,-275.0,256.0,226.0
18:17:34,-275.0,256.0,226.0
18:17:34,-275.0,256.0,226.0
18:17:34,-275.0,256.0,226.0
18:17:34,-255.0,256.0,227.0
18:17:34,-255.0,256.0,227.0
18:17:34,-255.0,256.0,227.0
18:17:34,-255.0,256.0,227.0
18:17:34,-269.0,255.0,226.0
18:17:34,-269.0,255.0,226.0
18:17:34,-269.0,255.0,226.0
18:17:34,-269.0,255.0,226.0
18:17:34,-310.0,257.0,226.0
18:17:34,-310.0,257.0,226.0
18:17:34,-310.0,257.0,226.0
18:17:34,-310.0,257.0,226.0
18:17:34,-294.0,255.0,225.0
18:17:34,-294.0,255.0,225.0
18:17:34,-294.0,255.0,225.0
18:17:34,-294.0,255.0,225.0
18:17:34,-323.0,256.0,226.0
18:17:34,-323.0,256.0,226.0
18:17:34,-323.0,256.0,226.0
18:17:34,-323.0,256.0,226.0
18:17:34,-298.0,256.0,225.0
18:17:34,-298.0,256.0,225.0
18:17:34,-298.0,256.0,225.0
18:17:34,-298.0,256.0,225.0
18:17:34,-279.0,256.0,226.0
18:17:34,-279.0,256.0,226.0
18:17:34,-279.0,256.0,226.0
18:17:34,-279.0,256.0,226.0
18:17:34,-347.0,256.0,226.0
18:17:34,-347.0,256.0,226.0
18:17:34,-347.0,256.0,226.0
18:17:34,-347.0,256.0,226.0
18:17:34,-158.0,257.0,226.0
18:17:34,-158.0,257.0,226.0
18:17:34,-158.0,257.0,226.0
18:17:34,-158.0,257.0,226.0
18:17:34,-266.0,256.0,225.0
18:17:34,-266.0,256.0,225.0
18:17:34,-266.0,256.0,225.0
18:17:34,-266.0,256.0,225.0
18:17:34,-386.0,256.0,226.0
18:17:34,-386.0,256.0,226.0
18:17:34,-386.0,256.0,226.0
18:17:34,-386.0,256.0,226.0
18:17:34,-442.0,257.0,225.0
18:17:34,-442.0,257.0,225.0
18:17:34,-442.0,257.0,225.0
18:17:34,-442.0,257.0,225.0
18:17:34,-425.0,257.0,226.0
18:17:34,-425.0,257.0,226.0
18:17:34,-425.0,257.0,226.0
18:17:34,-425.0,257.0,226.0
18:17:34,-423.0,255.0,226.0
18:17:34,-423.0,255.0,226.0
18:17:34,-423.0,255.0,226.0
18:17:34,-423.0,255.0,226.0
18:17:34,-428.0,256.0,225.0
18:17:34,-428.0,256.0,225.0
18:17:34,-428.0,256.0,225.0
18:17:34,-428.0,256.0,225.0
18:17:34,245.0,256.0,226.0
18:17:34,245.0,256.0,226.0
18:17:34,245.0,256.0,226.0
18:17:34,245.0,256.0,226.0
18:17:34,667.0,256.0,225.0
18:17:34,667.0,256.0,225.0
18:17:34,667.0,256.0,225.0
18:17:34,667.0,256.0,225.0
18:17:34,-604.0,256.0,226.0
18:17:34,-604.0,256.0,226.0
18:17:34,-604.0,256.0,226.0
18:17:34,-604.0,256.0,226.0
18:17:34,-506.0,256.0,228.0
18:17:34,-506.0,256.0,228.0
18:17:34,-506.0,256.0,228.0
18:17:34,-506.0,256.0,228.0
18:17:35,-503.0,256.0,231.0
18:17:35,-503.0,256.0,231.0
18:17:35,-503.0,256.0,231.0
18:17:35,-503.0,256.0,231.0
18:17:35,-517.0,257.0,232.0
18:17:35,-517.0,257.0,232.0
18:17:35,-517.0,257.0,232.0
18:17:35,-517.0,257.0,232.0
18:17:35,-478.0,257.0,230.0
18:17:35,-478.0,257.0,230.0
18:17:35,-478.0,257.0,230.0
18:17:35,-478.0,257.0,230.0
18:17:35,-438.0,257.0,226.0
18:17:35,-438.0,257.0,226.0
18:17:35,-438.0,257.0,226.0
18:17:35,-438.0,257.0,226.0
18:17:35,-438.0,258.0,226.0
18:17:35,-438.0,258.0,226.0
18:17:35,-438.0,258.0,226.0
18:17:35,-438.0,258.0,226.0
18:17:35,-403.0,260.0,225.0
18:17:35,-403.0,260.0,225.0
18:17:35,-403.0,260.0,225.0
18:17:35,-403.0,260.0,225.0
18:17:35,-366.0,262.0,225.0
18:17:35,-366.0,262.0,225.0
18:17:35,-366.0,262.0,225.0
18:17:35,-366.0,262.0,225.0
18:17:35,-314.0,262.0,225.0
18:17:35,-314.0,262.0,225.0
18:17:35,-314.0,262.0,225.0
18:17:35,-314.0,262.0,225.0
18:17:35,-267.0,258.0,226.0
18:17:35,-267.0,258.0,226.0
18:17:35,-267.0,258.0,226.0
18:17:35,-267.0,258.0,226.0
18:17:35,-227.0,256.0,225.0
18:17:35,-227.0,256.0,225.0
18:17:35,-227.0,256.0,225.0
18:17:35,-227.0,256.0,225.0
18:17:35,-255.0,257.0,226.0
18:17:35,-255.0,257.0,226.0
18:17:35,-255.0,257.0,226.0
18:17:35,-255.0,257.0,226.0
18:17:35,-264.0,257.0,226.0
18:17:35,-264.0,257.0,226.0
18:17:35,-264.0,257.0,226.0
18:17:35,-264.0,257.0,226.0
18:17:35,-348.0,256.0,230.0
18:17:35,-348.0,256.0,230.0
18:17:35,-348.0,256.0,230.0
18:17:35,-348.0,256.0,230.0
18:17:35,-321.0,256.0,233.0
18:17:35,-321.0,256.0,233.0
18:17:35,-321.0,256.0,233.0
18:17:35,-321.0,256.0,233.0
18:17:35,-334.0,257.0,229.0
18:17:35,-334.0,257.0,229.0
18:17:35,-334.0,257.0,229.0
18:17:35,-334.0,257.0,229.0
18:17:35,-260.0,255.0,225.0
18:17:35,-260.0,255.0,225.0
18:17:35,-260.0,255.0,225.0
18:17:35,-260.0,255.0,225.0
18:17:35,-295.0,257.0,224.0
18:17:35,-295.0,257.0,224.0
18:17:35,-295.0,257.0,224.0
18:17:35,-295.0,257.0,224.0
18:17:35,-334.0,259.0,224.0
18:17:35,-334.0,259.0,224.0
18:17:35,-334.0,259.0,224.0
18:17:35,-334.0,259.0,224.0
18:17:35,-285.0,263.0,223.0
18:17:35,-285.0,263.0,223.0
18:17:35,-285.0,263.0,223.0
18:17:35,-285.0,263.0,223.0
18:17:35,-251.0,261.0,224.0
18:17:35,-251.0,261.0,224.0
18:17:35,-251.0,261.0,224.0
18:17:35,-251.0,261.0,224.0
18:17:35,-202.0,257.0,223.0
18:17:35,-202.0,257.0,223.0
18:17:35,-202.0,257.0,223.0
18:17:35,-202.0,257.0,223.0
18:17:35,-206.0,256.0,223.0
18:17:35,-206.0,256.0,223.0
18:17:35,-206.0,256.0,223.0
18:17:35,-206.0,256.0,223.0
18:17:35,-159.0,255.0,224.0
18:17:35,-159.0,255.0,224.0
18:17:35,-159.0,255.0,224.0
18:17:35,-159.0,255.0,224.0
18:17:35,-124.0,253.0,224.0
18:17:35,-124.0,253.0,224.0
18:17:35,-124.0,253.0,224.0
18:17:35,-124.0,253.0,224.0
18:17:35,-54.0,255.0,222.0
18:17:35,-54.0,255.0,222.0
18:17:35,-54.0,255.0,222.0
18:17:35,-54.0,255.0,222.0
18:17:35,-64.0,254.0,224.0
18:17:35,-64.0,254.0,224.0
18:17:35,-64.0,254.0,224.0
18:17:35,-64.0,254.0,224.0
18:17:35,-192.0,255.0,224.0
18:17:35,-192.0,255.0,224.0
18:17:35,-192.0,255.0,224.0
18:17:35,-192.0,255.0,224.0
18:17:35,-163.0,255.0,223.0
18:17:35,-163.0,255.0,223.0
18:17:35,-163.0,255.0,223.0
18:17:35,-163.0,255.0,223.0
18:17:35,-235.0,256.0,223.0
18:17:35,-235.0,256.0,223.0
18:17:35,-235.0,256.0,223.0
18:17:35,-235.0,256.0,223.0
18:17:35,-138.0,255.0,225.0
18:17:35,-138.0,255.0,225.0
18:17:35,-138.0,255.0,225.0
18:17:35,-138.0,255.0,225.0
18:17:35,-146.0,254.0,227.0
18:17:35,-146.0,254.0,227.0
18:17:35,-146.0,254.0,227.0
18:17:35,-146.0,254.0,227.0
18:17:35,1406.0,254.0,226.0
18:17:35,1406.0,254.0,226.0
18:17:35,1406.0,254.0,226.0
18:17:35,1406.0,254.0,226.0
18:17:35,-309.0,254.0,225.0
18:17:35,-309.0,254.0,225.0
18:17:35,-309.0,254.0,225.0
18:17:35,-309.0,254.0,225.0
18:17:35,-239.0,255.0,222.0
18:17:35,-239.0,255.0,222.0
18:17:35,-239.0,255.0,222.0
18:17:35,-239.0,255.0,222.0
18:17:35,-191.0,255.0,223.0
18:17:35,-191.0,255.0,223.0
18:17:35,-191.0,255.0,223.0
18:17:35,-191.0,255.0,223.0
18:17:35,-183.0,259.0,222.0
18:17:35,-183.0,259.0,222.0
18:17:35,-183.0,259.0,222.0
18:17:35,-183.0,259.0,222.0
18:17:35,-137.0,258.0,221.0
18:17:35,-137.0,258.0,221.0
18:17:35,-137.0,258.0,221.0
18:17:35,-137.0,258.0,221.0
18:17:35,-74.0,256.0,223.0
18:17:35,-74.0,256.0,223.0
18:17:35,-74.0,256.0,223.0
18:17:35,-74.0,256.0,223.0
18:17:35,-36.0,255.0,222.0
18:17:35,-36.0,255.0,222.0
18:17:35,-36.0,255.0,222.0
18:17:35,-36.0,255.0,222.0
18:17:35,-32.0,253.0,221.0
18:17:35,-32.0,253.0,221.0
18:17:35,-32.0,253.0,221.0
18:17:35,-32.0,253.0,221.0
18:17:35,6.0,253.0,222.0
18:17:35,6.0,253.0,222.0
18:17:35,6.0,253.0,222.0
18:17:35,6.0,253.0,222.0
18:17:35,3.0,253.0,222.0
18:17:35,3.0,253.0,222.0
18:17:35,3.0,253.0,222.0
18:17:35,3.0,253.0,222.0
18:17:35,42.0,254.0,221.0
18:17:35,42.0,254.0,221.0
18:17:35,42.0,254.0,221.0
18:17:35,42.0,254.0,221.0
18:17:35,87.0,254.0,223.0
18:17:35,87.0,254.0,223.0
18:17:35,87.0,254.0,223.0
18:17:35,87.0,254.0,223.0
18:17:35,135.0,253.0,222.0
18:17:35,135.0,253.0,222.0
18:17:35,135.0,253.0,222.0
18:17:35,135.0,253.0,222.0
18:17:35,111.0,253.0,221.0
18:17:35,111.0,253.0,221.0
18:17:35,111.0,253.0,221.0
18:17:35,111.0,253.0,221.0
18:17:35,-55.0,253.0,223.0
18:17:35,-55.0,253.0,223.0
18:17:35,-55.0,253.0,223.0
18:17:35,-55.0,253.0,223.0
18:17:35,-52.0,252.0,222.0
18:17:35,-52.0,252.0,222.0
18:17:35,-52.0,252.0,222.0
18:17:35,-52.0,252.0,222.0
18:17:35,-77.0,253.0,222.0
18:17:35,-77.0,253.0,222.0
18:17:35,-77.0,253.0,222.0
18:17:35,-77.0,253.0,222.0
18:17:35,-96.0,253.0,222.0
18:17:35,-96.0,253.0,222.0
18:17:35,-96.0,253.0,222.0
18:17:35,-96.0,253.0,222.0
18:17:36,-128.0,253.0,222.0
18:17:36,-128.0,253.0,222.0
18:17:36,-128.0,253.0,222.0
18:17:36,-128.0,253.0,222.0
18:17:36,-107.0,252.0,222.0
18:17:36,-107.0,252.0,222.0
18:17:36,-107.0,252.0,222.0
18:17:36,-107.0,252.0,222.0
18:17:36,-116.0,253.0,223.0
18:17:36,-116.0,253.0,223.0
18:17:36,-116.0,253.0,223.0
18:17:36,-116.0,253.0,223.0
18:17:36,-98.0,253.0,221.0
18:17:36,-98.0,253.0,221.0
18:17:36,-98.0,253.0,221.0
18:17:36,-98.0,253.0,221.0
18:17:36,-141.0,254.0,222.0
18:17:36,-141.0,254.0,222.0
18:17:36,-141.0,254.0,222.0
18:17:36,-141.0,254.0,222.0
18:17:36,-92.0,254.0,222.0
18:17:36,-92.0,254.0,222.0
18:17:36,-92.0,254.0,222.0
18:17:36,-92.0,254.0,222.0
18:17:36,-80.0,253.0,222.0
18:17:36,-80.0,253.0,222.0
18:17:36,-80.0,253.0,222.0
18:17:36,-80.0,253.0,222.0
18:17:36,-32.0,252.0,221.0
18:17:36,-32.0,252.0,221.0
18:17:36,-32.0,252.0,221.0
18:17:36,-32.0,252.0,221.0
18:17:36,22.0,254.0,222.0
18:17:36,22.0,254.0,222.0
18:17:36,22.0,254.0,222.0
18:17:36,22.0,254.0,222.0
18:17:36,41.0,253.0,222.0
18:17:36,41.0,253.0,222.0
18:17:36,41.0,253.0,222.0
18:17:36,41.0,253.0,222.0
18:17:36,42.0,253.0,222.0
18:17:36,42.0,253.0,222.0
18:17:36,42.0,253.0,222.0
18:17:36,42.0,253.0,222.0
18:17:36,-102.0,255.0,223.0
18:17:36,-102.0,255.0,223.0
18:17:36,-102.0,255.0,223.0
18:17:36,-102.0,255.0,223.0
18:17:36,-112.0,253.0,222.0
18:17:36,-112.0,253.0,222.0
18:17:36,-112.0,253.0,222.0
18:17:36,-112.0,253.0,222.0
18:17:36,-63.0,251.0,222.0
18:17:36,-63.0,251.0,222.0
18:17:36,-63.0,251.0,222.0
18:17:36,-63.0,251.0,222.0
18:17:36,-55.0,255.0,222.0
18:17:36,-55.0,255.0,222.0
18:17:36,-55.0,255.0,222.0
18:17:36,-55.0,255.0,222.0
18:17:36,-75.0,253.0,220.0
18:17:36,-75.0,253.0,220.0
18:17:36,-75.0,253.0,220.0
18:17:36,-75.0,253.0,220.0
18:17:36,1247.0,252.0,217.0
18:17:36,1247.0,252.0,217.0
18:17:36,1247.0,252.0,217.0
18:17:36,1247.0,252.0,217.0
18:17:36,-94.0,254.0,219.0
18:17:36,-94.0,254.0,219.0
18:17:36,-94.0,254.0,219.0
18:17:36,-94.0,254.0,219.0
18:17:36,-144.0,252.0,219.0
18:17:36,-144.0,252.0,219.0
18:17:36,-144.0,252.0,219.0
18:17:36,-144.0,252.0,219.0
18:17:36,-158.0,253.0,220.0
18:17:36,-158.0,253.0,220.0
18:17:36,-158.0,253.0,220.0
18:17:36,-158.0,253.0,220.0
18:17:36,-100.0,253.0,223.0
18:17:36,-100.0,253.0,223.0
18:17:36,-100.0,253.0,223.0
18:17:36,-100.0,253.0,223.0
18:17:36,-106.0,250.0,222.0
18:17:36,-106.0,250.0,222.0
18:17:36,-106.0,250.0,222.0
18:17:36,-106.0,250.0,222.0
18:17:36,-59.0,248.0,223.0
18:17:36,-59.0,248.0,223.0
18:17:36,-59.0,248.0,223.0
18:17:36,-59.0,248.0,223.0
18:17:36,-45.0,251.0,222.0
18:17:36,-45.0,251.0,222.0
18:17:36,-45.0,251.0,222.0
18:17:36,-45.0,251.0,222.0
18:17:36,-3.0,252.0,222.0
18:17:36,-3.0,252.0,222.0
18:17:36,-3.0,252.0,222.0
18:17:36,-3.0,252.0,222.0
18:17:36,29.0,252.0,222.0
18:17:36,29.0,252.0,222.0
18:17:36,29.0,252.0,222.0
18:17:36,29.0,252.0,222.0
18:17:36,74.0,254.0,222.0
18:17:36,74.0,254.0,222.0
18:17:36,74.0,254.0,222.0
18:17:36,74.0,254.0,222.0
18:17:36,108.0,253.0,222.0
18:17:36,108.0,253.0,222.0
18:17:36,108.0,253.0,222.0
18:17:36,108.0,253.0,222.0
18:17:36,202.0,253.0,221.0
18:17:36,202.0,253.0,221.0
18:17:36,202.0,253.0,221.0
18:17:36,202.0,253.0,221.0
18:17:36,276.0,253.0,222.0
18:17:36,276.0,253.0,222.0
18:17:36,276.0,253.0,222.0
18:17:36,276.0,253.0,222.0
18:17:36,285.0,253.0,222.0
18:17:36,285.0,253.0,222.0
18:17:36,285.0,253.0,222.0
18:17:36,285.0,253.0,222.0
18:17:36,249.0,253.0,222.0
18:17:36,249.0,253.0,222.0
18:17:36,249.0,253.0,222.0
18:17:36,249.0,253.0,222.0
18:17:36,252.0,254.0,221.0
18:17:36,252.0,254.0,221.0
18:17:36,252.0,254.0,221.0
18:17:36,252.0,254.0,221.0
18:17:36,303.0,253.0,222.0
18:17:36,303.0,253.0,222.0
18:17:36,303.0,253.0,222.0
18:17:36,303.0,253.0,222.0
18:17:36,282.0,253.0,219.0
18:17:36,282.0,253.0,219.0
18:17:36,282.0,253.0,219.0
18:17:36,282.0,253.0,219.0
18:17:36,312.0,255.0,214.0
18:17:36,312.0,255.0,214.0
18:17:36,312.0,255.0,214.0
18:17:36,312.0,255.0,214.0
18:17:36,391.0,253.0,217.0
18:17:36,391.0,253.0,217.0
18:17:36,391.0,253.0,217.0
18:17:36,391.0,253.0,217.0
18:17:36,398.0,253.0,222.0
18:17:36,398.0,253.0,222.0
18:17:36,398.0,253.0,222.0
18:17:36,398.0,253.0,222.0
18:17:36,429.0,253.0,222.0
18:17:36,429.0,253.0,222.0
18:17:36,429.0,253.0,222.0
18:17:36,429.0,253.0,222.0
18:17:36,457.0,252.0,221.0
18:17:36,457.0,252.0,221.0
18:17:36,457.0,252.0,221.0
18:17:36,457.0,252.0,221.0
18:17:36,444.0,247.0,222.0
18:17:36,444.0,247.0,222.0
18:17:36,444.0,247.0,222.0
18:17:36,444.0,247.0,222.0
18:17:36,501.0,245.0,222.0
18:17:36,501.0,245.0,222.0
18:17:36,501.0,245.0,222.0
18:17:36,501.0,245.0,222.0
18:17:36,543.0,251.0,221.0
18:17:36,543.0,251.0,221.0
18:17:36,543.0,251.0,221.0
18:17:36,543.0,251.0,221.0
18:17:36,672.0,253.0,216.0
18:17:36,672.0,253.0,216.0
18:17:36,672.0,253.0,216.0
18:17:36,672.0,253.0,216.0
18:17:36,628.0,254.0,218.0
18:17:36,628.0,254.0,218.0
18:17:36,628.0,254.0,218.0
18:17:36,628.0,254.0,218.0
18:17:36,455.0,253.0,222.0
18:17:36,455.0,253.0,222.0
18:17:36,455.0,253.0,222.0
18:17:36,455.0,253.0,222.0
18:17:36,439.0,254.0,224.0
18:17:36,439.0,254.0,224.0
18:17:36,439.0,254.0,224.0
18:17:36,439.0,254.0,224.0
18:17:36,459.0,252.0,223.0
18:17:36,459.0,252.0,223.0
18:17:36,459.0,252.0,223.0
18:17:36,459.0,252.0,223.0
18:17:36,459.0,249.0,226.0
18:17:36,459.0,249.0,226.0
18:17:36,459.0,249.0,226.0
18:17:36,459.0,249.0,226.0
18:17:36,432.0,246.0,225.0
18:17:36,432.0,246.0,225.0
18:17:36,432.0,246.0,225.0
18:17:36,432.0,246.0,225.0
18:17:36,655.0,253.0,224.0
18:17:37,655.0,253.0,224.0
18:17:37,655.0,253.0,224.0
18:17:37,655.0,253.0,224.0
18:17:37,1815.0,254.0,225.0
18:17:37,1815.0,254.0,225.0
18:17:37,1815.0,254.0,225.0
18:17:37,1815.0,254.0,225.0
18:17:37,159.0,255.0,225.0
18:17:37,159.0,255.0,225.0
18:17:37,159.0,255.0,225.0
18:17:37,159.0,255.0,225.0
18:17:37,300.0,256.0,225.0
18:17:37,300.0,256.0,225.0
18:17:37,300.0,256.0,225.0
18:17:37,300.0,256.0,225.0
18:17:37,317.0,256.0,225.0
18:17:37,317.0,256.0,225.0
18:17:37,317.0,256.0,225.0
18:17:37,317.0,256.0,225.0
18:17:37,375.0,256.0,226.0
18:17:37,375.0,256.0,226.0
18:17:37,375.0,256.0,226.0
18:17:37,375.0,256.0,226.0
18:17:37,340.0,256.0,225.0
18:17:37,340.0,256.0,225.0
18:17:37,340.0,256.0,225.0
18:17:37,340.0,256.0,225.0
18:17:37,347.0,256.0,226.0
18:17:37,347.0,256.0,226.0
18:17:37,347.0,256.0,226.0
18:17:37,347.0,256.0,226.0
18:17:37,427.0,255.0,225.0
18:17:37,427.0,255.0,225.0
18:17:37,427.0,255.0,225.0
18:17:37,427.0,255.0,225.0
18:17:37,366.0,256.0,225.0
18:17:37,366.0,256.0,225.0
18:17:37,366.0,256.0,225.0
18:17:37,366.0,256.0,225.0
18:17:37,479.0,256.0,226.0
18:17:37,479.0,256.0,226.0
18:17:37,479.0,256.0,226.0
18:17:37,479.0,256.0,226.0
18:17:37,503.0,256.0,226.0
18:17:37,503.0,256.0,226.0
18:17:37,503.0,256.0,226.0
18:17:37,503.0,256.0,226.0
18:17:37,516.0,256.0,225.0
18:17:37,516.0,256.0,225.0
18:17:37,516.0,256.0,225.0
18:17:37,516.0,256.0,225.0
18:17:37,554.0,256.0,226.0
18:17:37,554.0,256.0,226.0
18:17:37,554.0,256.0,226.0
18:17:37,554.0,256.0,226.0
18:17:37,473.0,256.0,225.0
18:17:37,473.0,256.0,225.0
18:17:37,473.0,256.0,225.0
18:17:37,473.0,256.0,225.0
18:17:37,474.0,256.0,225.0
18:17:37,474.0,256.0,225.0
18:17:37,474.0,256.0,225.0
18:17:37,474.0,256.0,225.0
18:17:37,349.0,256.0,226.0
18:17:37,349.0,256.0,226.0
18:17:37,349.0,256.0,226.0
18:17:37,349.0,256.0,226.0
18:17:37,341.0,257.0,226.0
18:17:37,341.0,257.0,226.0
18:17:37,341.0,257.0,226.0
18:17:37,341.0,257.0,226.0
18:17:37,307.0,256.0,226.0
18:17:37,307.0,256.0,226.0
18:17:37,307.0,256.0,226.0
18:17:37,307.0,256.0,226.0
18:17:37,322.0,257.0,226.0
18:17:37,322.0,257.0,226.0
18:17:37,322.0,257.0,226.0
18:17:37,322.0,257.0,226.0
18:17:37,319.0,256.0,226.0
18:17:37,319.0,256.0,226.0
18:17:37,319.0,256.0,226.0
18:17:37,319.0,256.0,226.0
18:17:37,309.0,256.0,227.0
18:17:37,309.0,256.0,227.0
18:17:37,309.0,256.0,227.0
18:17:37,309.0,256.0,227.0
18:17:37,247.0,256.0,225.0
18:17:37,247.0,256.0,225.0
18:17:37,247.0,256.0,225.0
18:17:37,247.0,256.0,225.0
18:17:37,265.0,256.0,226.0
18:17:37,265.0,256.0,226.0
18:17:37,265.0,256.0,226.0
18:17:37,265.0,256.0,226.0
18:17:37,284.0,256.0,226.0
18:17:37,284.0,256.0,226.0
18:17:37,284.0,256.0,226.0
18:17:37,284.0,256.0,226.0
18:17:37,274.0,257.0,225.0
18:17:37,274.0,257.0,225.0
18:17:37,274.0,257.0,225.0
18:17:37,274.0,257.0,225.0
18:17:37,261.0,257.0,225.0
18:17:37,261.0,257.0,225.0
18:17:37,261.0,257.0,225.0
18:17:37,261.0,257.0,225.0
18:17:37,382.0,255.0,225.0
18:17:37,382.0,255.0,225.0
18:17:37,382.0,255.0,225.0
18:17:37,382.0,255.0,225.0
18:17:37,353.0,257.0,227.0
18:17:37,353.0,257.0,227.0
18:17:37,353.0,257.0,227.0
18:17:37,353.0,257.0,227.0
18:17:37,218.0,257.0,226.0
18:17:37,218.0,257.0,226.0
18:17:37,218.0,257.0,226.0
18:17:37,218.0,257.0,226.0
18:17:37,201.0,256.0,225.0
18:17:37,201.0,256.0,225.0
18:17:37,201.0,256.0,225.0
18:17:37,201.0,256.0,225.0
18:17:37,230.0,255.0,225.0
18:17:37,230.0,255.0,225.0
18:17:37,230.0,255.0,225.0
18:17:37,230.0,255.0,225.0
18:17:37,200.0,256.0,225.0
18:17:37,200.0,256.0,225.0
18:17:37,200.0,256.0,225.0
18:17:37,200.0,256.0,225.0
18:17:37,275.0,257.0,225.0
18:17:37,275.0,257.0,225.0
18:17:37,275.0,257.0,225.0
18:17:37,275.0,257.0,225.0
18:17:37,579.0,257.0,226.0
18:17:37,579.0,257.0,226.0
18:17:37,579.0,257.0,226.0
18:17:37,579.0,257.0,226.0
18:17:37,1311.0,258.0,225.0
18:17:37,1311.0,258.0,225.0
18:17:37,1311.0,258.0,225.0
18:17:37,1311.0,258.0,225.0
18:17:37,-120.0,257.0,226.0
18:17:37,-120.0,257.0,226.0
18:17:37,-120.0,257.0,226.0
18:17:37,-120.0,257.0,226.0
18:17:37,22.0,257.0,225.0
18:17:37,22.0,257.0,225.0
18:17:37,22.0,257.0,225.0
18:17:37,22.0,257.0,225.0
18:17:37,116.0,257.0,226.0
18:17:37,116.0,257.0,226.0
18:17:37,116.0,257.0,226.0
18:17:37,116.0,257.0,226.0
18:17:37,156.0,257.0,225.0
18:17:37,156.0,257.0,225.0
18:17:37,156.0,257.0,225.0
18:17:37,156.0,257.0,225.0
18:17:37,169.0,256.0,226.0
18:17:37,169.0,256.0,226.0
18:17:37,169.0,256.0,226.0
18:17:37,169.0,256.0,226.0
18:17:37,169.0,257.0,225.0
18:17:37,169.0,257.0,225.0
18:17:37,169.0,257.0,225.0
18:17:37,169.0,257.0,225.0
18:17:37,160.0,256.0,224.0
18:17:37,160.0,256.0,224.0
18:17:37,160.0,256.0,224.0
18:17:37,160.0,256.0,224.0
18:17:37,197.0,256.0,226.0
18:17:37,197.0,256.0,226.0
18:17:37,197.0,256.0,226.0
18:17:37,197.0,256.0,226.0
18:17:37,270.0,257.0,226.0
18:17:37,270.0,257.0,226.0
18:17:37,270.0,257.0,226.0
18:17:37,270.0,257.0,226.0
18:17:37,248.0,257.0,224.0
18:17:37,248.0,257.0,224.0
18:17:37,248.0,257.0,224.0
18:17:37,248.0,257.0,224.0
18:17:37,315.0,257.0,226.0
18:17:37,315.0,257.0,226.0
18:17:37,315.0,257.0,226.0
18:17:37,315.0,257.0,226.0
18:17:37,403.0,257.0,225.0
18:17:37,403.0,257.0,225.0
18:17:37,403.0,257.0,225.0
18:17:37,403.0,257.0,225.0
18:17:37,332.0,256.0,226.0
18:17:37,332.0,256.0,226.0
18:17:37,332.0,256.0,226.0
18:17:37,332.0,256.0,226.0
18:17:37,242.0,257.0,227.0
18:17:37,242.0,257.0,227.0
18:17:37,242.0,257.0,227.0
18:17:37,242.0,257.0,227.0
18:17:37,124.0,257.0,225.0
18:17:37,124.0,257.0,225.0
18:17:38,124.0,257.0,225.0
18:17:38,124.0,257.0,225.0
18:17:38,168.0,256.0,225.0
18:17:38,168.0,256.0,225.0
18:17:38,168.0,256.0,225.0
18:17:38,168.0,256.0,225.0
18:17:38,148.0,257.0,226.0
18:17:38,148.0,257.0,226.0
18:17:38,148.0,257.0,226.0
18:17:38,148.0,257.0,226.0
18:17:38,156.0,257.0,226.0
18:17:38,156.0,257.0,226.0
18:17:38,156.0,257.0,226.0
18:17:38,156.0,257.0,226.0
18:17:38,150.0,257.0,226.0
18:17:38,150.0,257.0,226.0
18:17:38,150.0,257.0,226.0
18:17:38,150.0,257.0,226.0
18:17:38,132.0,257.0,227.0
18:17:38,132.0,257.0,227.0
18:17:38,132.0,257.0,227.0
18:17:38,132.0,257.0,227.0
18:17:38,119.0,257.0,226.0
18:17:38,119.0,257.0,226.0
18:17:38,119.0,257.0,226.0
18:17:38,119.0,257.0,226.0
18:17:38,101.0,256.0,226.0
18:17:38,101.0,256.0,226.0
18:17:38,101.0,256.0,226.0
18:17:38,101.0,256.0,226.0
18:17:38,108.0,256.0,226.0
18:17:38,108.0,256.0,226.0
18:17:38,108.0,256.0,226.0
18:17:38,108.0,256.0,226.0
18:17:38,131.0,257.0,225.0
18:17:38,131.0,257.0,225.0
18:17:38,131.0,257.0,225.0
18:17:38,131.0,257.0,225.0
18:17:38,117.0,256.0,225.0
18:17:38,117.0,256.0,225.0
18:17:38,117.0,256.0,225.0
18:17:38,117.0,256.0,225.0
18:17:38,213.0,258.0,227.0
18:17:38,213.0,258.0,227.0
18:17:38,213.0,258.0,227.0
18:17:38,213.0,258.0,227.0
18:17:38,159.0,257.0,227.0
18:17:38,159.0,257.0,227.0
18:17:38,159.0,257.0,227.0
18:17:38,159.0,257.0,227.0
18:17:38,73.0,256.0,227.0
18:17:38,73.0,256.0,227.0
18:17:38,73.0,256.0,227.0
18:17:38,73.0,256.0,227.0
18:17:38,29.0,257.0,227.0
18:17:38,29.0,257.0,227.0
18:17:38,29.0,257.0,227.0
18:17:38,29.0,257.0,227.0
18:17:38,22.0,257.0,225.0
18:17:38,22.0,257.0,225.0
18:17:38,22.0,257.0,225.0
18:17:38,22.0,257.0,225.0
18:17:38,69.0,256.0,227.0
18:17:38,69.0,256.0,227.0
18:17:38,69.0,256.0,227.0
18:17:38,69.0,256.0,227.0
18:17:38,37.0,258.0,229.0
18:17:38,37.0,258.0,229.0
18:17:38,37.0,258.0,229.0
18:17:38,37.0,258.0,229.0
18:17:38,567.0,256.0,232.0
18:17:38,567.0,256.0,232.0
18:17:38,567.0,256.0,232.0
18:17:38,567.0,256.0,232.0
18:17:38,1068.0,257.0,232.0
18:17:38,1068.0,257.0,232.0
18:17:38,1068.0,257.0,232.0
18:17:38,1068.0,257.0,232.0
18:17:38,-180.0,256.0,227.0
18:17:38,-180.0,256.0,227.0
18:17:38,-180.0,256.0,227.0
18:17:38,-180.0,256.0,227.0
18:17:38,-80.0,258.0,226.0
18:17:38,-80.0,258.0,226.0
18:17:38,-80.0,258.0,226.0
18:17:38,-80.0,258.0,226.0
18:17:38,-76.0,259.0,226.0
18:17:38,-76.0,259.0,226.0
18:17:38,-76.0,259.0,226.0
18:17:38,-76.0,259.0,226.0
18:17:38,-28.0,263.0,225.0
18:17:38,-28.0,263.0,225.0
18:17:38,-28.0,263.0,225.0
18:17:38,-28.0,263.0,225.0
18:17:38,3.0,264.0,227.0
18:17:38,3.0,264.0,227.0
18:17:38,3.0,264.0,227.0
18:17:38,3.0,264.0,227.0
18:17:38,-19.0,259.0,226.0
18:17:38,-19.0,259.0,226.0
18:17:38,-19.0,259.0,226.0
18:17:38,-19.0,259.0,226.0
18:17:38,14.0,258.0,224.0
18:17:38,14.0,258.0,224.0
18:17:38,14.0,258.0,224.0
18:17:38,14.0,258.0,224.0
18:17:38,20.0,257.0,226.0
18:17:38,20.0,257.0,226.0
18:17:38,20.0,257.0,226.0
18:17:38,20.0,257.0,226.0
18:17:38,110.0,256.0,226.0
18:17:38,110.0,256.0,226.0
18:17:38,110.0,256.0,226.0
18:17:38,110.0,256.0,226.0
18:17:38,137.0,257.0,226.0
18:17:38,137.0,257.0,226.0
18:17:38,137.0,257.0,226.0
18:17:38,137.0,257.0,226.0
18:17:38,137.0,256.0,231.0
18:17:38,137.0,256.0,231.0
18:17:38,137.0,256.0,231.0
18:17:38,137.0,256.0,231.0
18:17:38,191.0,256.0,233.0
18:17:38,191.0,256.0,233.0
18:17:38,191.0,256.0,233.0
18:17:38,191.0,256.0,233.0
18:17:38,186.0,256.0,229.0
18:17:38,186.0,256.0,229.0
18:17:38,186.0,256.0,229.0
18:17:38,186.0,256.0,229.0
18:17:38,118.0,255.0,227.0
18:17:38,118.0,255.0,227.0
18:17:38,118.0,255.0,227.0
18:17:38,118.0,255.0,227.0
18:17:38,12.0,257.0,225.0
18:17:38,12.0,257.0,225.0
18:17:38,12.0,257.0,225.0
18:17:38,12.0,257.0,225.0
18:17:38,40.0,260.0,223.0
18:17:38,40.0,260.0,223.0
18:17:38,40.0,260.0,223.0
18:17:38,40.0,260.0,223.0
18:17:38,27.0,263.0,224.0
18:17:38,27.0,263.0,224.0
18:17:38,27.0,263.0,224.0
18:17:38,27.0,263.0,224.0
18:17:38,18.0,263.0,225.0
18:17:38,18.0,263.0,225.0
18:17:38,18.0,263.0,225.0
18:17:38,18.0,263.0,225.0
18:17:38,51.0,260.0,223.0
18:17:38,51.0,260.0,223.0
18:17:38,51.0,260.0,223.0
18:17:38,51.0,260.0,223.0
18:17:38,53.0,256.0,224.0
18:17:38,53.0,256.0,224.0
18:17:38,53.0,256.0,224.0
18:17:38,53.0,256.0,224.0
18:17:38,20.0,255.0,224.0
18:17:38,20.0,255.0,224.0
18:17:38,20.0,255.0,224.0
18:17:38,20.0,255.0,224.0
18:17:38,19.0,255.0,223.0
18:17:38,19.0,255.0,223.0
18:17:38,19.0,255.0,223.0
18:17:38,19.0,255.0,223.0
18:17:38,27.0,254.0,224.0
18:17:38,27.0,254.0,224.0
18:17:38,27.0,254.0,224.0
18:17:38,27.0,254.0,224.0
18:17:38,62.0,255.0,223.0
18:17:38,62.0,255.0,223.0
18:17:38,62.0,255.0,223.0
18:17:38,62.0,255.0,223.0
18:17:38,123.0,254.0,223.0
18:17:38,123.0,254.0,223.0
18:17:38,123.0,254.0,223.0
18:17:38,123.0,254.0,223.0
18:17:38,116.0,255.0,224.0
18:17:38,116.0,255.0,224.0
18:17:38,116.0,255.0,224.0
18:17:38,116.0,255.0,224.0
18:17:38,40.0,256.0,223.0
18:17:38,40.0,256.0,223.0
18:17:38,40.0,256.0,223.0
18:17:38,40.0,256.0,223.0
18:17:38,-1.0,255.0,224.0
18:17:38,-1.0,255.0,224.0
18:17:38,-1.0,255.0,224.0
18:17:38,-1.0,255.0,224.0
18:17:38,-34.0,254.0,227.0
18:17:38,-34.0,254.0,227.0
18:17:38,-34.0,254.0,227.0
18:17:38,-34.0,254.0,227.0
18:17:38,-7.0,256.0,229.0
18:17:38,-7.0,256.0,229.0
18:17:38,-7.0,256.0,229.0
18:17:38,-7.0,256.0,229.0
18:17:38,-36.0,253.0,226.0
18:17:38,-36.0,253.0,226.0
18:17:38,-36.0,253.0,226.0
18:17:39,-36.0,253.0,226.0
18:17:39,-47.0,254.0,223.0
18:17:39,-47.0,254.0,223.0
18:17:39,-47.0,254.0,223.0
18:17:39,-47.0,254.0,223.0
18:17:39,1265.0,254.0,222.0
18:17:39,1265.0,254.0,222.0
18:17:39,1265.0,254.0,222.0
18:17:39,1265.0,254.0,222.0
18:17:39,-113.0,257.0,223.0
18:17:39,-113.0,257.0,223.0
18:17:39,-113.0,257.0,223.0
18:17:39,-113.0,257.0,223.0
18:17:39,-170.0,260.0,222.0
18:17:39,-170.0,260.0,222.0
18:17:39,-170.0,260.0,222.0
18:17:39,-170.0,260.0,222.0
18:17:39,-171.0,259.0,222.0
18:17:39,-171.0,259.0,222.0
18:17:39,-171.0,259.0,222.0
18:17:39,-171.0,259.0,222.0
18:17:39,-121.0,255.0,222.0
18:17:39,-121.0,255.0,222.0
18:17:39,-121.0,255.0,222.0
18:17:39,-121.0,255.0,222.0
18:17:39,-50.0,254.0,222.0
18:17:39,-50.0,254.0,222.0
18:17:39,-50.0,254.0,222.0
18:17:39,-50.0,254.0,222.0
18:17:39,-80.0,253.0,224.0
18:17:39,-80.0,253.0,224.0
18:17:39,-80.0,253.0,224.0
18:17:39,-80.0,253.0,224.0
18:17:39,-33.0,254.0,222.0
18:17:39,-33.0,254.0,222.0
18:17:39,-33.0,254.0,222.0
18:17:39,-33.0,254.0,222.0
18:17:39,-51.0,253.0,221.0
18:17:39,-51.0,253.0,221.0
18:17:39,-51.0,253.0,221.0
18:17:39,-51.0,253.0,221.0
18:17:39,6.0,253.0,222.0
18:17:39,6.0,253.0,222.0
18:17:39,6.0,253.0,222.0
18:17:39,6.0,253.0,222.0
18:17:39,74.0,254.0,223.0
18:17:39,74.0,254.0,223.0
18:17:39,74.0,254.0,223.0
18:17:39,74.0,254.0,223.0
18:17:39,110.0,254.0,221.0
18:17:39,110.0,254.0,221.0
18:17:39,110.0,254.0,221.0
18:17:39,110.0,254.0,221.0
18:17:39,86.0,253.0,222.0
18:17:39,86.0,253.0,222.0
18:17:39,86.0,253.0,222.0
18:17:39,86.0,253.0,222.0
18:17:39,156.0,255.0,222.0
18:17:39,156.0,255.0,222.0
18:17:39,156.0,255.0,222.0
18:17:39,156.0,255.0,222.0
18:17:39,95.0,253.0,222.0
18:17:39,95.0,253.0,222.0
18:17:39,95.0,253.0,222.0
18:17:39,95.0,253.0,222.0
18:17:39,33.0,255.0,223.0
18:17:39,33.0,255.0,223.0
18:17:39,33.0,255.0,223.0
18:17:39,33.0,255.0,223.0
18:17:39,-56.0,253.0,223.0
18:17:39,-56.0,253.0,223.0
18:17:39,-56.0,253.0,223.0
18:17:39,-56.0,253.0,223.0
18:17:39,-45.0,254.0,222.0
18:17:39,-45.0,254.0,222.0
18:17:39,-45.0,254.0,222.0
18:17:39,-45.0,254.0,222.0
18:17:39,-68.0,255.0,222.0
18:17:39,-68.0,255.0,222.0
18:17:39,-68.0,255.0,222.0
18:17:39,-68.0,255.0,222.0
18:17:39,-50.0,253.0,223.0
18:17:39,-50.0,253.0,223.0
18:17:39,-50.0,253.0,223.0
18:17:39,-50.0,253.0,223.0
18:17:39,-72.0,254.0,221.0
18:17:39,-72.0,254.0,221.0
18:17:39,-72.0,254.0,221.0
18:17:39,-72.0,254.0,221.0
18:17:39,-75.0,254.0,222.0
18:17:39,-75.0,254.0,222.0
18:17:39,-75.0,254.0,222.0
18:17:39,-75.0,254.0,222.0
18:17:39,-49.0,255.0,222.0
18:17:39,-49.0,255.0,222.0
18:17:39,-49.0,255.0,222.0
18:17:39,-49.0,255.0,222.0
18:17:39,-95.0,254.0,222.0
18:17:39,-95.0,254.0,222.0
18:17:39,-95.0,254.0,222.0
18:17:39,-95.0,254.0,222.0
18:17:39,-40.0,255.0,223.0
18:17:39,-40.0,255.0,223.0
18:17:39,-40.0,255.0,223.0
18:17:39,-40.0,255.0,223.0
18:17:39,-17.0,254.0,222.0
18:17:39,-17.0,254.0,222.0
18:17:39,-17.0,254.0,222.0
18:17:39,-17.0,254.0,222.0
18:17:39,49.0,253.0,223.0
18:17:39,49.0,253.0,223.0
18:17:39,49.0,253.0,223.0
18:17:39,49.0,253.0,223.0
18:17:39,-11.0,254.0,223.0
18:17:39,-11.0,254.0,223.0
18:17:39,-11.0,254.0,223.0
18:17:39,-11.0,254.0,223.0
18:17:39,-131.0,254.0,222.0
18:17:39,-131.0,254.0,222.0
18:17:39,-131.0,254.0,222.0
18:17:39,-131.0,254.0,222.0
18:17:39,-122.0,254.0,223.0
18:17:39,-122.0,254.0,223.0
18:17:39,-122.0,254.0,223.0
18:17:39,-122.0,254.0,223.0
18:17:39,-130.0,255.0,223.0
18:17:39,-130.0,255.0,223.0
18:17:39,-130.0,255.0,223.0
18:17:39,-130.0,255.0,223.0
18:17:39,-142.0,254.0,222.0
18:17:39,-142.0,254.0,222.0
18:17:39,-142.0,254.0,222.0
18:17:39,-142.0,254.0,222.0
18:17:39,-169.0,254.0,221.0
18:17:39,-169.0,254.0,221.0
18:17:39,-169.0,254.0,221.0
18:17:39,-169.0,254.0,221.0
18:17:39,476.0,255.0,219.0
18:17:39,476.0,255.0,219.0
18:17:39,476.0,255.0,219.0
18:17:39,476.0,255.0,219.0
18:17:39,1074.0,253.0,218.0
18:17:39,1074.0,253.0,218.0
18:17:39,1074.0,253.0,218.0
18:17:39,1074.0,253.0,218.0
18:17:39,-285.0,254.0,219.0
18:17:39,-285.0,254.0,219.0
18:17:39,-285.0,254.0,219.0
18:17:39,-285.0,254.0,219.0
18:17:39,-239.0,255.0,222.0
18:17:39,-239.0,255.0,222.0
18:17:39,-239.0,255.0,222.0
18:17:39,-239.0,255.0,222.0
18:17:39,-220.0,254.0,222.0
18:17:39,-220.0,254.0,222.0
18:17:39,-220.0,254.0,222.0
18:17:39,-220.0,254.0,222.0
18:17:39,-191.0,250.0,223.0
18:17:39,-191.0,250.0,223.0
18:17:39,-191.0,250.0,223.0
18:17:39,-191.0,250.0,223.0
18:17:39,-164.0,249.0,223.0
18:17:39,-164.0,249.0,223.0
18:17:39,-164.0,249.0,223.0
18:17:39,-164.0,249.0,223.0
18:17:39,-131.0,249.0,223.0
18:17:39,-131.0,249.0,223.0
18:17:39,-131.0,249.0,223.0
18:17:39,-131.0,249.0,223.0
18:17:39,-107.0,251.0,222.0
18:17:39,-107.0,251.0,222.0
18:17:39,-107.0,251.0,222.0
18:17:39,-107.0,251.0,222.0
18:17:39,-103.0,253.0,223.0
18:17:39,-103.0,253.0,223.0
18:17:39,-103.0,253.0,223.0
18:17:39,-103.0,253.0,223.0
18:17:39,-69.0,254.0,223.0
18:17:39,-69.0,254.0,223.0
18:17:39,-69.0,254.0,223.0
18:17:39,-69.0,254.0,223.0
18:17:39,-39.0,253.0,223.0
18:17:39,-39.0,253.0,223.0
18:17:39,-39.0,253.0,223.0
18:17:39,-39.0,253.0,223.0
18:17:39,-16.0,255.0,222.0
18:17:39,-16.0,255.0,222.0
18:17:39,-16.0,255.0,222.0
18:17:39,-16.0,255.0,222.0
18:17:39,29.0,252.0,223.0
18:17:39,29.0,252.0,223.0
18:17:39,29.0,252.0,223.0
18:17:39,29.0,252.0,223.0
18:17:39,9.0,254.0,223.0
18:17:39,9.0,254.0,223.0
18:17:39,9.0,254.0,223.0
18:17:39,9.0,254.0,223.0
18:17:39,-37.0,254.0,222.0
18:17:39,-37.0,254.0,222.0
18:17:39,-37.0,254.0,222.0
18:17:39,-37.0,254.0,222.0
18:17:40,-133.0,255.0,223.0
18:17:40,-133.0,255.0,223.0
18:17:40,-133.0,255.0,223.0
18:17:40,-133.0,255.0,223.0
18:17:40,-81.0,253.0,223.0
18:17:40,-81.0,253.0,223.0
18:17:40,-81.0,253.0,223.0
18:17:40,-81.0,253.0,223.0
18:17:40,-102.0,254.0,222.0
18:17:40,-102.0,254.0,222.0
18:17:40,-102.0,254.0,222.0
18:17:40,-102.0,254.0,222.0
18:17:40,-127.0,254.0,221.0
18:17:40,-127.0,254.0,221.0
18:17:40,-127.0,254.0,221.0
18:17:40,-127.0,254.0,221.0
18:17:40,-87.0,254.0,214.0
18:17:40,-87.0,254.0,214.0
18:17:40,-87.0,254.0,214.0
18:17:40,-87.0,254.0,214.0
18:17:40,-113.0,255.0,216.0
18:17:40,-113.0,255.0,216.0
18:17:40,-113.0,255.0,216.0
18:17:40,-113.0,255.0,216.0
18:17:40,-74.0,255.0,223.0
18:17:40,-74.0,255.0,223.0
18:17:40,-74.0,255.0,223.0
18:17:40,-74.0,255.0,223.0
18:17:40,-120.0,254.0,223.0
18:17:40,-120.0,254.0,223.0
18:17:40,-120.0,254.0,223.0
18:17:40,-120.0,254.0,223.0
18:17:40,-80.0,254.0,223.0
18:17:40,-80.0,254.0,223.0
18:17:40,-80.0,254.0,223.0
18:17:40,-80.0,254.0,223.0
18:17:40,-56.0,245.0,223.0
18:17:40,-56.0,245.0,223.0
18:17:40,-56.0,245.0,223.0
18:17:40,-56.0,245.0,223.0
18:17:40,-2.0,252.0,219.0
18:17:40,-2.0,252.0,219.0
18:17:40,-2.0,252.0,219.0
18:17:40,-2.0,252.0,219.0
18:17:40,44.0,255.0,216.0
18:17:40,44.0,255.0,216.0
18:17:40,44.0,255.0,216.0
18:17:40,44.0,255.0,216.0
18:17:40,46.0,255.0,218.0
18:17:40,46.0,255.0,218.0
18:17:40,46.0,255.0,218.0
18:17:40,46.0,255.0,218.0
18:17:40,-120.0,254.0,222.0
18:17:40,-120.0,254.0,222.0
18:17:40,-120.0,254.0,222.0
18:17:40,-120.0,254.0,222.0
18:17:40,-155.0,255.0,225.0
18:17:40,-155.0,255.0,225.0
18:17:40,-155.0,255.0,225.0
18:17:40,-155.0,255.0,225.0
18:17:40,-131.0,252.0,224.0
18:17:40,-131.0,252.0,224.0
18:17:40,-131.0,252.0,224.0
18:17:40,-131.0,252.0,224.0
18:17:40,-104.0,247.0,224.0
18:17:40,-104.0,247.0,224.0
18:17:40,-104.0,247.0,224.0
18:17:40,-104.0,247.0,224.0
18:17:40,-135.0,250.0,224.0
18:17:40,-135.0,250.0,224.0
18:17:40,-135.0,250.0,224.0
18:17:40,-135.0,250.0,224.0
18:17:40,625.0,254.0,226.0
18:17:40,625.0,254.0,226.0
18:17:40,625.0,254.0,226.0
18:17:40,625.0,254.0,226.0
18:17:40,837.0,255.0,226.0
18:17:40,837.0,255.0,226.0
18:17:40,837.0,255.0,226.0
18:17:40,837.0,255.0,226.0
18:17:40,-305.0,256.0,224.0
18:17:40,-305.0,256.0,224.0
18:17:40,-305.0,256.0,224.0
18:17:40,-305.0,256.0,224.0
18:17:40,-234.0,257.0,225.0
18:17:40,-234.0,257.0,225.0
18:17:40,-234.0,257.0,225.0
18:17:40,-234.0,257.0,225.0
18:17:40,-231.0,256.0,226.0
18:17:40,-231.0,256.0,226.0
18:17:40,-231.0,256.0,226.0
18:17:40,-231.0,256.0,226.0
18:17:40,-165.0,256.0,224.0
18:17:40,-165.0,256.0,224.0
18:17:40,-165.0,256.0,224.0
18:17:40,-165.0,256.0,224.0
18:17:40,-164.0,256.0,226.0
18:17:40,-164.0,256.0,226.0
18:17:40,-164.0,256.0,226.0
18:17:40,-164.0,256.0,226.0
18:17:40,-146.0,256.0,226.0
18:17:40,-146.0,256.0,226.0
18:17:40,-146.0,256.0,226.0
18:17:40,-146.0,256.0,226.0
18:17:40,-93.0,257.0,225.0
18:17:40,-93.0,257.0,225.0
18:17:40,-93.0,257.0,225.0
18:17:40,-93.0,257.0,225.0
18:17:40,-36.0,257.0,226.0
18:17:40,-36.0,257.0,226.0
18:17:40,-36.0,257.0,226.0
18:17:40,-36.0,257.0,226.0
18:17:40,-10.0,256.0,225.0
18:17:40,-10.0,256.0,225.0
18:17:40,-10.0,256.0,225.0
18:17:40,-10.0,256.0,225.0
18:17:40,15.0,256.0,225.0
18:17:40,15.0,256.0,225.0
18:17:40,15.0,256.0,225.0
18:17:40,15.0,256.0,225.0
18:17:40,18.0,257.0,226.0
18:17:40,18.0,257.0,226.0
18:17:40,18.0,257.0,226.0
18:17:40,18.0,257.0,226.0
18:17:40,69.0,257.0,226.0
18:17:40,69.0,257.0,226.0
18:17:40,69.0,257.0,226.0
18:17:40,69.0,257.0,226.0
18:17:40,31.0,257.0,225.0
18:17:40,31.0,257.0,225.0
18:17:40,31.0,257.0,225.0
18:17:40,31.0,257.0,225.0
18:17:40,-44.0,259.0,226.0
18:17:40,-44.0,259.0,226.0
18:17:40,-44.0,259.0,226.0
18:17:40,-44.0,259.0,226.0
18:17:40,-77.0,256.0,227.0
18:17:40,-77.0,256.0,227.0
18:17:40,-77.0,256.0,227.0
18:17:40,-77.0,256.0,227.0
18:17:40,-132.0,256.0,225.0
18:17:40,-132.0,256.0,225.0
18:17:40,-132.0,256.0,225.0
18:17:40,-132.0,256.0,225.0
18:17:40,-107.0,258.0,225.0
18:17:40,-107.0,258.0,225.0
18:17:40,-107.0,258.0,225.0
18:17:40,-107.0,258.0,225.0
18:17:40,-104.0,258.0,227.0
18:17:40,-104.0,258.0,227.0
18:17:40,-104.0,258.0,227.0
18:17:40,-104.0,258.0,227.0
18:17:40,-108.0,257.0,225.0
18:17:40,-108.0,257.0,225.0
18:17:40,-108.0,257.0,225.0
18:17:40,-108.0,257.0,225.0
18:17:40,-70.0,257.0,226.0
18:17:40,-70.0,257.0,226.0
18:17:40,-70.0,257.0,226.0
18:17:40,-70.0,257.0,226.0
18:17:40,-105.0,258.0,226.0
18:17:40,-105.0,258.0,226.0
18:17:40,-105.0,258.0,226.0
18:17:40,-105.0,258.0,226.0
18:17:40,-90.0,257.0,225.0
18:17:40,-90.0,257.0,225.0
18:17:40,-90.0,257.0,225.0
18:17:40,-90.0,257.0,225.0
18:17:40,-114.0,258.0,225.0
18:17:40,-114.0,258.0,225.0
18:17:40,-114.0,258.0,225.0
18:17:40,-114.0,258.0,225.0
18:17:40,-35.0,256.0,226.0
18:17:40,-35.0,256.0,226.0
18:17:40,-35.0,256.0,226.0
18:17:40,-35.0,256.0,226.0
18:17:40,-66.0,258.0,226.0
18:17:40,-66.0,258.0,226.0
18:17:40,-66.0,258.0,226.0
18:17:40,-66.0,258.0,226.0
18:17:40,-23.0,257.0,226.0
18:17:40,-23.0,257.0,226.0
18:17:40,-23.0,257.0,226.0
18:17:40,-23.0,257.0,226.0
18:17:40,-1.0,257.0,227.0
18:17:40,-1.0,257.0,227.0
18:17:40,-1.0,257.0,227.0
18:17:40,-1.0,257.0,227.0
18:17:40,-128.0,258.0,225.0
18:17:40,-128.0,258.0,225.0
18:17:40,-128.0,258.0,225.0
18:17:40,-128.0,258.0,225.0
18:17:40,-183.0,259.0,225.0
18:17:40,-183.0,259.0,225.0
18:17:40,-183.0,259.0,225.0
18:17:40,-183.0,259.0,225.0
18:17:40,-175.0,257.0,226.0
18:17:40,-175.0,257.0,226.0
18:17:40,-175.0,257.0,226.0
18:17:40,-175.0,257.0,226.0
18:17:40,-140.0,258.0,227.0
18:17:41,-140.0,258.0,227.0
18:17:41,-140.0,258.0,227.0
18:17:41,-140.0,258.0,227.0
18:17:41,-179.0,258.0,225.0
18:17:41,-179.0,258.0,225.0
18:17:41,-179.0,258.0,225.0
18:17:41,-179.0,258.0,225.0
18:17:41,-128.0,258.0,226.0
18:17:41,-128.0,258.0,226.0
18:17:41,-128.0,258.0,226.0
18:17:41,-128.0,258.0,226.0
18:17:41,1434.0,257.0,226.0
18:17:41,1434.0,257.0,226.0
18:17:41,1434.0,257.0,226.0
18:17:41,1434.0,257.0,226.0
18:17:41,-426.0,259.0,227.0
18:17:41,-426.0,259.0,227.0
18:17:41,-426.0,259.0,227.0
18:17:41,-426.0,259.0,227.0
18:17:41,-238.0,258.0,225.0
18:17:41,-238.0,258.0,225.0
18:17:41,-238.0,258.0,225.0
18:17:41,-238.0,258.0,225.0
18:17:41,-237.0,259.0,226.0
18:17:41,-237.0,259.0,226.0
18:17:41,-237.0,259.0,226.0
18:17:41,-237.0,259.0,226.0
18:17:41,-168.0,258.0,226.0
18:17:41,-168.0,258.0,226.0
18:17:41,-168.0,258.0,226.0
18:17:41,-168.0,258.0,226.0
18:17:41,-144.0,258.0,225.0
18:17:41,-144.0,258.0,225.0
18:17:41,-144.0,258.0,225.0
18:17:41,-144.0,258.0,225.0
18:17:41,-105.0,257.0,226.0
18:17:41,-105.0,257.0,226.0
18:17:41,-105.0,257.0,226.0
18:17:41,-105.0,257.0,226.0
18:17:41,-41.0,258.0,227.0
18:17:41,-41.0,258.0,227.0
18:17:41,-41.0,258.0,227.0
18:17:41,-41.0,258.0,227.0
18:17:41,-52.0,260.0,226.0
18:17:41,-52.0,260.0,226.0
18:17:41,-52.0,260.0,226.0
18:17:41,-52.0,260.0,226.0
18:17:41,34.0,259.0,227.0
18:17:41,34.0,259.0,227.0
18:17:41,34.0,259.0,227.0
18:17:41,34.0,259.0,227.0
18:17:41,47.0,258.0,227.0
18:17:41,47.0,258.0,227.0
18:17:41,47.0,258.0,227.0
18:17:41,47.0,258.0,227.0
18:17:41,140.0,260.0,225.0
18:17:41,140.0,260.0,225.0
18:17:41,140.0,260.0,225.0
18:17:41,140.0,260.0,225.0
18:17:41,160.0,259.0,226.0
18:17:41,160.0,259.0,226.0
18:17:41,160.0,259.0,226.0
18:17:41,160.0,259.0,226.0
18:17:41,167.0,259.0,227.0
18:17:41,167.0,259.0,227.0
18:17:41,167.0,259.0,227.0
18:17:41,167.0,259.0,227.0
18:17:41,143.0,260.0,226.0
18:17:41,143.0,260.0,226.0
18:17:41,143.0,260.0,226.0
18:17:41,143.0,260.0,226.0
18:17:41,31.0,259.0,227.0
18:17:41,31.0,259.0,227.0
18:17:41,31.0,259.0,227.0
18:17:41,31.0,259.0,227.0
18:17:41,6.0,258.0,226.0
18:17:41,6.0,258.0,226.0
18:17:41,6.0,258.0,226.0
18:17:41,6.0,258.0,226.0
18:17:41,-55.0,259.0,225.0
18:17:41,-55.0,259.0,225.0
18:17:41,-55.0,259.0,225.0
18:17:41,-55.0,259.0,225.0
18:17:41,-41.0,258.0,226.0
18:17:41,-41.0,258.0,226.0
18:17:41,-41.0,258.0,226.0
18:17:41,-41.0,258.0,226.0
18:17:41,34.0,258.0,226.0
18:17:41,34.0,258.0,226.0
18:17:41,34.0,258.0,226.0
18:17:41,34.0,258.0,226.0
18:17:41,51.0,259.0,225.0
18:17:41,51.0,259.0,225.0
18:17:41,51.0,259.0,225.0
18:17:41,51.0,259.0,225.0
18:17:41,-23.0,260.0,227.0
18:17:41,-23.0,260.0,227.0
18:17:41,-23.0,260.0,227.0
18:17:41,-23.0,260.0,227.0
18:17:41,65.0,259.0,226.0
18:17:41,65.0,259.0,226.0
18:17:41,65.0,259.0,226.0
18:17:41,65.0,259.0,226.0
18:17:41,38.0,260.0,226.0
18:17:41,38.0,260.0,226.0
18:17:41,38.0,260.0,226.0
18:17:41,38.0,260.0,226.0
18:17:41,-37.0,259.0,226.0
18:17:41,-37.0,259.0,226.0
18:17:41,-37.0,259.0,226.0
18:17:41,-37.0,259.0,226.0
18:17:41,73.0,260.0,228.0
18:17:41,73.0,260.0,228.0
18:17:41,73.0,260.0,228.0
18:17:41,73.0,260.0,228.0
18:17:41,-8.0,260.0,227.0
18:17:41,-8.0,260.0,227.0
18:17:41,-8.0,260.0,227.0
18:17:41,-8.0,260.0,227.0
18:17:41,115.0,260.0,226.0
18:17:41,115.0,260.0,226.0
18:17:41,115.0,260.0,226.0
18:17:41,115.0,260.0,226.0
18:17:41,91.0,260.0,227.0
18:17:41,91.0,260.0,227.0
18:17:41,91.0,260.0,227.0
18:17:41,91.0,260.0,227.0
18:17:41,25.0,260.0,226.0
18:17:41,25.0,260.0,226.0
18:17:41,25.0,260.0,226.0
18:17:41,25.0,260.0,226.0
18:17:41,-20.0,262.0,229.0
18:17:41,-20.0,262.0,229.0
18:17:41,-20.0,262.0,229.0
18:17:41,-20.0,262.0,229.0
18:17:41,-9.0,260.0,233.0
18:17:41,-9.0,260.0,233.0
18:17:41,-9.0,260.0,233.0
18:17:41,-9.0,260.0,233.0
18:17:41,23.0,259.0,232.0
18:17:41,23.0,259.0,232.0
18:17:41,23.0,259.0,232.0
18:17:41,23.0,259.0,232.0
18:17:41,-37.0,261.0,230.0
18:17:41,-37.0,261.0,230.0
18:17:41,-37.0,261.0,230.0
18:17:41,-37.0,261.0,230.0
18:17:41,802.0,259.0,226.0
18:17:41,802.0,259.0,226.0
18:17:41,802.0,259.0,226.0
18:17:41,802.0,259.0,226.0
18:17:41,312.0,261.0,226.0
18:17:41,312.0,261.0,226.0
18:17:41,312.0,261.0,226.0
18:17:41,312.0,261.0,226.0
18:17:41,-156.0,265.0,226.0
18:17:41,-156.0,265.0,226.0
18:17:41,-156.0,265.0,226.0
18:17:41,-156.0,265.0,226.0
18:17:41,-44.0,266.0,227.0
18:17:41,-44.0,266.0,227.0
18:17:41,-44.0,266.0,227.0
18:17:41,-44.0,266.0,227.0
18:17:41,-58.0,262.0,225.0
18:17:41,-58.0,262.0,225.0
18:17:41,-58.0,262.0,225.0
18:17:41,-58.0,262.0,225.0
18:17:41,-34.0,263.0,225.0
18:17:41,-34.0,263.0,225.0
18:17:41,-34.0,263.0,225.0
18:17:41,-34.0,263.0,225.0
18:17:41,9.0,261.0,225.0
18:17:41,9.0,261.0,225.0
18:17:41,9.0,261.0,225.0
18:17:41,9.0,261.0,225.0
18:17:41,-53.0,262.0,226.0
18:17:41,-53.0,262.0,226.0
18:17:41,-53.0,262.0,226.0
18:17:41,-53.0,262.0,226.0
18:17:41,3.0,261.0,227.0
18:17:41,3.0,261.0,227.0
18:17:41,3.0,261.0,227.0
18:17:41,3.0,261.0,227.0
18:17:41,26.0,261.0,232.0
18:17:41,26.0,261.0,232.0
18:17:41,26.0,261.0,232.0
18:17:41,26.0,261.0,232.0
18:17:41,75.0,261.0,232.0
18:17:41,75.0,261.0,232.0
18:17:41,75.0,261.0,232.0
18:17:41,75.0,261.0,232.0
18:17:41,80.0,261.0,228.0
18:17:41,80.0,261.0,228.0
18:17:41,80.0,261.0,228.0
18:17:41,80.0,261.0,228.0
18:17:41,98.0,262.0,224.0
18:17:41,98.0,262.0,224.0
18:17:41,98.0,262.0,224.0
18:17:41,98.0,262.0,224.0
18:17:41,88.0,263.0,224.0
18:17:42,88.0,263.0,224.0
18:17:42,88.0,263.0,224.0
18:17:42,88.0,263.0,224.0
18:17:42,26.0,267.0,223.0
18:17:42,26.0,267.0,223.0
18:17:42,26.0,267.0,223.0
18:17:42,26.0,267.0,223.0
18:17:42,4.0,267.0,225.0
18:17:42,4.0,267.0,225.0
18:17:42,4.0,267.0,225.0
18:17:42,4.0,267.0,225.0
18:17:42,2.0,264.0,224.0
18:17:42,2.0,264.0,224.0
18:17:42,2.0,264.0,224.0
18:17:42,2.0,264.0,224.0
18:17:42,18.0,262.0,224.0
18:17:42,18.0,262.0,224.0
18:17:42,18.0,262.0,224.0
18:17:42,18.0,262.0,224.0
18:17:42,-60.0,260.0,224.0
18:17:42,-60.0,260.0,224.0
18:17:42,-60.0,260.0,224.0
18:17:42,-60.0,260.0,224.0
18:17:42,7.0,260.0,224.0
18:17:42,7.0,260.0,224.0
18:17:42,7.0,260.0,224.0
18:17:42,7.0,260.0,224.0
18:17:42,31.0,261.0,224.0
18:17:42,31.0,261.0,224.0
18:17:42,31.0,261.0,224.0
18:17:42,31.0,261.0,224.0
18:17:42,35.0,259.0,224.0
18:17:42,35.0,259.0,224.0
18:17:42,35.0,259.0,224.0
18:17:42,35.0,259.0,224.0
18:17:42,-18.0,261.0,224.0
18:17:42,-18.0,261.0,224.0
18:17:42,-18.0,261.0,224.0
18:17:42,-18.0,261.0,224.0
18:17:42,-3.0,260.0,225.0
18:17:42,-3.0,260.0,225.0
18:17:42,-3.0,260.0,225.0
18:17:42,-3.0,260.0,225.0
18:17:42,30.0,260.0,224.0
18:17:42,30.0,260.0,224.0
18:17:42,30.0,260.0,224.0
18:17:42,30.0,260.0,224.0
18:17:42,73.0,260.0,225.0
18:17:42,73.0,260.0,225.0
18:17:42,73.0,260.0,225.0
18:17:42,73.0,260.0,225.0
18:17:42,101.0,261.0,228.0
18:17:42,101.0,261.0,228.0
18:17:42,101.0,261.0,228.0
18:17:42,101.0,261.0,228.0
18:17:42,154.0,260.0,227.0
18:17:42,154.0,260.0,227.0
18:17:42,154.0,260.0,227.0
18:17:42,154.0,260.0,227.0
18:17:42,55.0,258.0,225.0
18:17:42,55.0,258.0,225.0
18:17:42,55.0,258.0,225.0
18:17:42,55.0,258.0,225.0
18:17:42,-44.0,259.0,223.0
18:17:42,-44.0,259.0,223.0
18:17:42,-44.0,259.0,223.0
18:17:42,-44.0,259.0,223.0
18:17:42,-9.0,258.0,223.0
18:17:42,-9.0,258.0,223.0
18:17:42,-9.0,258.0,223.0
18:17:42,-9.0,258.0,223.0
18:17:42,-22.0,261.0,221.0
18:17:42,-22.0,261.0,221.0
18:17:42,-22.0,261.0,221.0
18:17:42,-22.0,261.0,221.0
18:17:42,-117.0,263.0,223.0
18:17:42,-117.0,263.0,223.0
18:17:42,-117.0,263.0,223.0
18:17:42,-117.0,263.0,223.0
18:17:42,449.0,257.0,222.0
18:17:42,449.0,257.0,222.0
18:17:42,449.0,257.0,222.0
18:17:42,449.0,257.0,222.0
18:17:42,551.0,256.0,221.0
18:17:42,551.0,256.0,221.0
18:17:42,551.0,256.0,221.0
18:17:42,551.0,256.0,221.0
18:17:42,-244.0,255.0,223.0
18:17:42,-244.0,255.0,223.0
18:17:42,-244.0,255.0,223.0
18:17:42,-244.0,255.0,223.0
18:17:42,-171.0,256.0,221.0
18:17:42,-171.0,256.0,221.0
18:17:42,-171.0,256.0,221.0
18:17:42,-171.0,256.0,221.0
18:17:42,-45.0,255.0,222.0
18:17:42,-45.0,255.0,222.0
18:17:42,-45.0,255.0,222.0
18:17:42,-45.0,255.0,222.0
18:17:42,-38.0,255.0,222.0
18:17:42,-38.0,255.0,222.0
18:17:42,-38.0,255.0,222.0
18:17:42,-38.0,255.0,222.0
18:17:42,24.0,255.0,223.0
18:17:42,24.0,255.0,223.0
18:17:42,24.0,255.0,223.0
18:17:42,24.0,255.0,223.0
18:17:42,17.0,257.0,221.0
18:17:42,17.0,257.0,221.0
18:17:42,17.0,257.0,221.0
18:17:42,17.0,257.0,221.0
18:17:42,44.0,258.0,222.0
18:17:42,44.0,258.0,222.0
18:17:42,44.0,258.0,222.0
18:17:42,44.0,258.0,222.0
18:17:42,79.0,257.0,223.0
18:17:42,79.0,257.0,223.0
18:17:42,79.0,257.0,223.0
18:17:42,79.0,257.0,223.0
18:17:42,50.0,257.0,222.0
18:17:42,50.0,257.0,222.0
18:17:42,50.0,257.0,222.0
18:17:42,50.0,257.0,222.0
18:17:42,68.0,258.0,223.0
18:17:42,68.0,258.0,223.0
18:17:42,68.0,258.0,223.0
18:17:42,68.0,258.0,223.0
18:17:42,98.0,259.0,223.0
18:17:42,98.0,259.0,223.0
18:17:42,98.0,259.0,223.0
18:17:42,98.0,259.0,223.0
18:17:42,144.0,260.0,222.0
18:17:42,144.0,260.0,222.0
18:17:42,144.0,260.0,222.0
18:17:42,144.0,260.0,222.0
18:17:42,219.0,260.0,223.0
18:17:42,219.0,260.0,223.0
18:17:42,219.0,260.0,223.0
18:17:42,219.0,260.0,223.0
18:17:42,56.0,261.0,223.0
18:17:42,56.0,261.0,223.0
18:17:42,56.0,261.0,223.0
18:17:42,56.0,261.0,223.0
18:17:42,74.0,260.0,222.0
18:17:42,74.0,260.0,222.0
18:17:42,74.0,260.0,222.0
18:17:42,74.0,260.0,222.0
18:17:42,81.0,262.0,222.0
18:17:42,81.0,262.0,222.0
18:17:42,81.0,262.0,222.0
18:17:42,81.0,262.0,222.0
18:17:42,88.0,260.0,224.0
18:17:42,88.0,260.0,224.0
18:17:42,88.0,260.0,224.0
18:17:42,88.0,260.0,224.0
18:17:42,218.0,262.0,221.0
18:17:42,218.0,262.0,221.0
18:17:42,218.0,262.0,221.0
18:17:42,218.0,262.0,221.0
18:17:42,267.0,261.0,224.0
18:17:42,267.0,261.0,224.0
18:17:42,267.0,261.0,224.0
18:17:42,267.0,261.0,224.0
18:17:42,317.0,260.0,223.0
18:17:42,317.0,260.0,223.0
18:17:42,317.0,260.0,223.0
18:17:42,317.0,260.0,223.0
18:17:42,237.0,261.0,222.0
18:17:42,237.0,261.0,222.0
18:17:42,237.0,261.0,222.0
18:17:42,237.0,261.0,222.0
18:17:42,265.0,260.0,223.0
18:17:42,265.0,260.0,223.0
18:17:42,265.0,260.0,223.0
18:17:42,265.0,260.0,223.0
18:17:42,298.0,261.0,223.0
18:17:42,298.0,261.0,223.0
18:17:42,298.0,261.0,223.0
18:17:42,298.0,261.0,223.0
18:17:42,369.0,260.0,222.0
18:17:42,369.0,260.0,222.0
18:17:42,369.0,260.0,222.0
18:17:42,369.0,260.0,222.0
18:17:42,467.0,261.0,223.0
18:17:42,467.0,261.0,223.0
18:17:42,467.0,261.0,223.0
18:17:42,467.0,261.0,223.0
18:17:42,424.0,260.0,221.0
18:17:42,424.0,260.0,221.0
18:17:42,424.0,260.0,221.0
18:17:42,424.0,260.0,221.0
18:17:42,261.0,260.0,218.0
18:17:42,261.0,260.0,218.0
18:17:42,261.0,260.0,218.0
18:17:42,261.0,260.0,218.0
18:17:42,337.0,260.0,219.0
18:17:42,337.0,260.0,219.0
18:17:42,337.0,260.0,219.0
18:17:42,337.0,260.0,219.0
18:17:42,259.0,260.0,222.0
18:17:42,259.0,260.0,222.0
18:17:43,259.0,260.0,222.0
18:17:43,259.0,260.0,222.0
18:17:43,335.0,259.0,222.0
18:17:43,335.0,259.0,222.0
18:17:43,335.0,259.0,222.0
18:17:43,335.0,259.0,222.0
18:17:43,197.0,259.0,223.0
18:17:43,197.0,259.0,223.0
18:17:43,197.0,259.0,223.0
18:17:43,197.0,259.0,223.0
18:17:43,888.0,255.0,223.0
18:17:43,888.0,255.0,223.0
18:17:43,888.0,255.0,223.0
18:17:43,888.0,255.0,223.0
18:17:43,712.0,255.0,223.0
18:17:43,712.0,255.0,223.0
18:17:43,712.0,255.0,223.0
18:17:43,712.0,255.0,223.0
18:17:43,8.0,258.0,222.0
18:17:43,8.0,258.0,222.0
18:17:43,8.0,258.0,222.0
18:17:43,8.0,258.0,222.0
18:17:43,172.0,258.0,222.0
18:17:43,172.0,258.0,222.0
18:17:43,172.0,258.0,222.0
18:17:43,172.0,258.0,222.0
18:17:43,259.0,260.0,223.0
18:17:43,259.0,260.0,223.0
18:17:43,259.0,260.0,223.0
18:17:43,259.0,260.0,223.0
18:17:43,262.0,260.0,222.0
18:17:43,262.0,260.0,222.0
18:17:43,262.0,260.0,222.0
18:17:43,262.0,260.0,222.0
18:17:43,254.0,259.0,223.0
18:17:43,254.0,259.0,223.0
18:17:43,254.0,259.0,223.0
18:17:43,254.0,259.0,223.0
18:17:43,307.0,259.0,223.0
18:17:43,307.0,259.0,223.0
18:17:43,307.0,259.0,223.0
18:17:43,307.0,259.0,223.0
18:17:43,273.0,260.0,222.0
18:17:43,273.0,260.0,222.0
18:17:43,273.0,260.0,222.0
18:17:43,273.0,260.0,222.0
18:17:43,241.0,259.0,222.0
18:17:43,241.0,259.0,222.0
18:17:43,241.0,259.0,222.0
18:17:43,241.0,259.0,222.0
18:17:43,286.0,261.0,224.0
18:17:43,286.0,261.0,224.0
18:17:43,286.0,261.0,224.0
18:17:43,286.0,261.0,224.0
18:17:43,351.0,261.0,221.0
18:17:43,351.0,261.0,221.0
18:17:43,351.0,261.0,221.0
18:17:43,351.0,261.0,221.0
18:17:43,330.0,259.0,220.0
18:17:43,330.0,259.0,220.0
18:17:43,330.0,259.0,220.0
18:17:43,330.0,259.0,220.0
18:17:43,344.0,260.0,216.0
18:17:43,344.0,260.0,216.0
18:17:43,344.0,260.0,216.0
18:17:43,344.0,260.0,216.0
18:17:43,378.0,260.0,217.0
18:17:43,378.0,260.0,217.0
18:17:43,378.0,260.0,217.0
18:17:43,378.0,260.0,217.0
