16:42:32,6393.0,291.0,263.0
16:42:32,6393.0,291.0,263.0
16:42:32,6393.0,291.0,263.0
16:42:32,6393.0,291.0,263.0
16:42:32,6414.0,291.0,260.0
16:42:32,6414.0,291.0,260.0
16:42:32,6414.0,291.0,260.0
16:42:32,6414.0,291.0,260.0
16:42:32,6798.0,288.0,260.0
16:42:32,6798.0,288.0,260.0
16:42:32,6798.0,288.0,260.0
16:42:32,6798.0,288.0,260.0
16:42:32,6962.0,289.0,258.0
16:42:32,6962.0,289.0,258.0
16:42:32,6962.0,289.0,258.0
16:42:32,6962.0,289.0,258.0
16:42:32,7930.0,287.0,257.0
16:42:32,7930.0,287.0,257.0
16:42:32,7930.0,287.0,257.0
16:42:32,7930.0,287.0,257.0
16:42:32,6197.0,288.0,258.0
16:42:32,6197.0,288.0,258.0
16:42:32,6197.0,288.0,258.0
16:42:32,6197.0,288.0,258.0
16:42:32,6703.0,287.0,255.0
16:42:32,6703.0,287.0,255.0
16:42:32,6703.0,287.0,255.0
16:42:32,6703.0,287.0,255.0
16:42:32,6382.0,286.0,254.0
16:42:32,6382.0,286.0,254.0
Mon Feb 02 16:42:32 IST 2026
TimeStamp,ECG,PPG
16:42:32,6382.0,286.0,254.0
16:42:32,6382.0,286.0,254.0
16:42:32,6371.0,286.0,255.0
16:42:32,6371.0,286.0,255.0
16:42:32,6371.0,286.0,255.0
16:42:32,6371.0,286.0,255.0
16:42:32,6285.0,285.0,255.0
16:42:32,6285.0,285.0,255.0
16:42:32,6285.0,285.0,255.0
16:42:32,6285.0,285.0,255.0
16:42:32,6501.0,283.0,254.0
16:42:32,6501.0,283.0,254.0
16:42:32,6501.0,283.0,254.0
16:42:32,6501.0,283.0,254.0
16:42:32,6494.0,284.0,255.0
16:42:32,6494.0,284.0,255.0
16:42:32,6494.0,284.0,255.0
16:42:32,6494.0,284.0,255.0
16:42:32,6494.0,282.0,253.0
16:42:32,6494.0,282.0,253.0
16:42:32,6494.0,282.0,253.0
16:42:32,6494.0,282.0,253.0
16:42:32,6545.0,282.0,252.0
16:42:32,6545.0,282.0,252.0
16:42:32,6545.0,282.0,252.0
16:42:32,6545.0,282.0,252.0
16:42:32,6516.0,282.0,252.0
16:42:32,6516.0,282.0,252.0
16:42:32,6516.0,282.0,252.0
16:42:32,6516.0,282.0,252.0
16:42:32,6470.0,280.0,250.0
16:42:32,6470.0,280.0,250.0
16:42:32,6470.0,280.0,250.0
16:42:32,6470.0,280.0,250.0
16:42:32,6601.0,279.0,249.0
16:42:32,6601.0,279.0,249.0
16:42:32,6601.0,279.0,249.0
16:42:32,6601.0,279.0,249.0
16:42:32,6586.0,278.0,248.0
16:42:32,6586.0,278.0,248.0
16:42:32,6586.0,278.0,248.0
16:42:32,6586.0,278.0,248.0
16:42:32,6560.0,276.0,247.0
16:42:32,6560.0,276.0,247.0
16:42:32,6560.0,276.0,247.0
16:42:32,6560.0,276.0,247.0
16:42:32,6375.0,274.0,245.0
16:42:32,6375.0,274.0,245.0
16:42:32,6375.0,274.0,245.0
16:42:32,6375.0,274.0,245.0
16:42:32,6301.0,275.0,246.0
16:42:32,6301.0,275.0,246.0
16:42:32,6301.0,275.0,246.0
16:42:32,6301.0,275.0,246.0
16:42:32,6420.0,274.0,246.0
16:42:32,6420.0,274.0,246.0
16:42:32,6420.0,274.0,246.0
16:42:32,6420.0,274.0,246.0
16:42:32,6597.0,273.0,245.0
16:42:32,6597.0,273.0,245.0
16:42:32,6597.0,273.0,245.0
16:42:32,6597.0,273.0,245.0
16:42:32,6647.0,274.0,245.0
16:42:32,6647.0,274.0,245.0
16:42:32,6647.0,274.0,245.0
16:42:32,6647.0,274.0,245.0
16:42:32,6494.0,273.0,245.0
16:42:32,6494.0,273.0,245.0
16:42:32,6494.0,273.0,245.0
16:42:32,6494.0,273.0,245.0
16:42:32,6479.0,272.0,243.0
16:42:32,6479.0,272.0,243.0
16:42:32,6479.0,272.0,243.0
16:42:32,6479.0,272.0,243.0
16:42:32,6544.0,273.0,245.0
16:42:32,6544.0,273.0,245.0
16:42:32,6544.0,273.0,245.0
16:42:32,6544.0,273.0,245.0
16:42:33,6539.0,273.0,244.0
16:42:33,6539.0,273.0,244.0
16:42:33,6539.0,273.0,244.0
16:42:33,6539.0,273.0,244.0
16:42:33,6687.0,271.0,244.0
16:42:33,6687.0,271.0,244.0
16:42:33,6687.0,271.0,244.0
16:42:33,6687.0,271.0,244.0
16:42:33,6551.0,272.0,244.0
16:42:33,6551.0,272.0,244.0
16:42:33,6551.0,272.0,244.0
16:42:33,6551.0,272.0,244.0
16:42:33,6459.0,271.0,244.0
16:42:33,6459.0,271.0,244.0
16:42:33,6459.0,271.0,244.0
16:42:33,6459.0,271.0,244.0
16:42:33,6426.0,271.0,242.0
16:42:33,6426.0,271.0,242.0
16:42:33,6426.0,271.0,242.0
16:42:33,6426.0,271.0,242.0
16:42:33,6459.0,271.0,242.0
16:42:33,6459.0,271.0,242.0
16:42:33,6459.0,271.0,242.0
16:42:33,6459.0,271.0,242.0
16:42:33,6601.0,272.0,243.0
16:42:33,6601.0,272.0,243.0
16:42:33,6601.0,272.0,243.0
16:42:33,6601.0,272.0,243.0
16:42:33,6554.0,270.0,242.0
16:42:33,6554.0,270.0,242.0
16:42:33,6554.0,270.0,242.0
16:42:33,6554.0,270.0,242.0
16:42:33,6460.0,269.0,242.0
16:42:33,6460.0,269.0,242.0
16:42:33,6460.0,269.0,242.0
16:42:33,6460.0,269.0,242.0
16:42:33,6497.0,271.0,241.0
16:42:33,6497.0,271.0,241.0
16:42:33,6497.0,271.0,241.0
16:42:33,6497.0,271.0,241.0
16:42:33,6366.0,271.0,241.0
16:42:33,6366.0,271.0,241.0
16:42:33,6366.0,271.0,241.0
16:42:33,6366.0,271.0,241.0
16:42:33,6346.0,269.0,240.0
16:42:33,6346.0,269.0,240.0
16:42:33,6346.0,269.0,240.0
16:42:33,6346.0,269.0,240.0
16:42:33,6368.0,270.0,240.0
16:42:33,6368.0,270.0,240.0
16:42:33,6368.0,270.0,240.0
16:42:33,6368.0,270.0,240.0
16:42:33,6306.0,270.0,240.0
16:42:33,6306.0,270.0,240.0
16:42:33,6306.0,270.0,240.0
16:42:33,6306.0,270.0,240.0
16:42:33,6370.0,270.0,240.0
16:42:33,6370.0,270.0,240.0
16:42:33,6370.0,270.0,240.0
16:42:33,6370.0,270.0,240.0
16:42:33,6609.0,270.0,239.0
16:42:33,6609.0,270.0,239.0
16:42:33,6609.0,270.0,239.0
16:42:33,6609.0,270.0,239.0
16:42:33,7547.0,269.0,240.0
16:42:33,7547.0,269.0,240.0
16:42:33,7547.0,269.0,240.0
16:42:33,7547.0,269.0,240.0
16:42:33,5597.0,269.0,238.0
16:42:33,5597.0,269.0,238.0
16:42:33,5597.0,269.0,238.0
16:42:33,5597.0,269.0,238.0
16:42:33,5730.0,268.0,239.0
16:42:33,5730.0,268.0,239.0
16:42:33,5730.0,268.0,239.0
16:42:33,5730.0,268.0,239.0
16:42:33,5735.0,269.0,239.0
16:42:33,5735.0,269.0,239.0
16:42:33,5735.0,269.0,239.0
16:42:33,5735.0,269.0,239.0
16:42:33,6103.0,270.0,238.0
16:42:33,6103.0,270.0,238.0
16:42:33,6103.0,270.0,238.0
16:42:33,6103.0,270.0,238.0
16:42:33,6253.0,268.0,239.0
16:42:33,6253.0,268.0,239.0
16:42:33,6253.0,268.0,239.0
16:42:33,6253.0,268.0,239.0
16:42:33,6917.0,268.0,239.0
16:42:33,6917.0,268.0,239.0
16:42:33,6917.0,268.0,239.0
16:42:33,6917.0,268.0,239.0
16:42:33,7253.0,269.0,238.0
16:42:33,7253.0,269.0,238.0
16:42:33,7253.0,269.0,238.0
16:42:33,7253.0,269.0,238.0
16:42:33,6859.0,267.0,238.0
16:42:33,6859.0,267.0,238.0
16:42:33,6859.0,267.0,238.0
16:42:33,6859.0,267.0,238.0
16:42:33,6864.0,267.0,239.0
16:42:33,6864.0,267.0,239.0
16:42:33,6864.0,267.0,239.0
16:42:33,6864.0,267.0,239.0
16:42:33,6965.0,268.0,237.0
16:42:33,6965.0,268.0,237.0
16:42:33,6965.0,268.0,237.0
16:42:33,6965.0,268.0,237.0
16:42:33,7089.0,267.0,238.0
16:42:33,7089.0,267.0,238.0
16:42:33,7089.0,267.0,238.0
16:42:33,7089.0,267.0,238.0
16:42:33,6730.0,268.0,237.0
16:42:33,6730.0,268.0,237.0
16:42:33,6730.0,268.0,237.0
16:42:33,6730.0,268.0,237.0
16:42:33,6894.0,267.0,237.0
16:42:33,6894.0,267.0,237.0
16:42:33,6894.0,267.0,237.0
16:42:33,6894.0,267.0,237.0
16:42:33,6533.0,268.0,237.0
16:42:33,6533.0,268.0,237.0
16:42:33,6533.0,268.0,237.0
16:42:33,6533.0,268.0,237.0
16:42:33,6455.0,266.0,237.0
16:42:33,6455.0,266.0,237.0
16:42:33,6455.0,266.0,237.0
16:42:33,6455.0,266.0,237.0
16:42:33,6642.0,266.0,237.0
16:42:33,6642.0,266.0,237.0
16:42:33,6642.0,266.0,237.0
16:42:33,6642.0,266.0,237.0
16:42:33,6572.0,267.0,238.0
16:42:33,6572.0,267.0,238.0
16:42:33,6572.0,267.0,238.0
16:42:33,6572.0,267.0,238.0
16:42:33,6343.0,267.0,237.0
16:42:33,6343.0,267.0,237.0
16:42:33,6343.0,267.0,237.0
16:42:33,6343.0,267.0,237.0
16:42:33,6432.0,265.0,237.0
16:42:33,6432.0,265.0,237.0
16:42:33,6432.0,265.0,237.0
16:42:33,6432.0,265.0,237.0
16:42:33,6279.0,267.0,237.0
16:42:33,6279.0,267.0,237.0
16:42:33,6279.0,267.0,237.0
16:42:33,6279.0,267.0,237.0
16:42:33,6329.0,267.0,237.0
16:42:33,6329.0,267.0,237.0
16:42:33,6329.0,267.0,237.0
16:42:33,6329.0,267.0,237.0
16:42:33,6250.0,266.0,236.0
16:42:33,6250.0,266.0,236.0
16:42:33,6250.0,266.0,236.0
16:42:33,6250.0,266.0,236.0
16:42:33,6334.0,265.0,237.0
16:42:33,6334.0,265.0,237.0
16:42:33,6334.0,265.0,237.0
16:42:33,6334.0,265.0,237.0
16:42:33,6400.0,266.0,236.0
16:42:33,6400.0,266.0,236.0
16:42:33,6400.0,266.0,236.0
16:42:33,6400.0,266.0,236.0
16:42:33,6378.0,265.0,237.0
16:42:33,6378.0,265.0,237.0
16:42:33,6378.0,265.0,237.0
16:42:33,6378.0,265.0,237.0
16:42:33,6191.0,267.0,236.0
16:42:33,6191.0,267.0,236.0
16:42:33,6191.0,267.0,236.0
16:42:33,6191.0,267.0,236.0
16:42:33,6059.0,265.0,236.0
16:42:33,6059.0,265.0,236.0
16:42:33,6059.0,265.0,236.0
16:42:33,6059.0,265.0,236.0
16:42:33,6243.0,265.0,236.0
16:42:33,6243.0,265.0,236.0
16:42:33,6243.0,265.0,236.0
16:42:33,6243.0,265.0,236.0
16:42:33,6268.0,267.0,237.0
16:42:33,6268.0,267.0,237.0
16:42:33,6268.0,267.0,237.0
16:42:33,6268.0,267.0,237.0
16:42:33,6313.0,266.0,236.0
16:42:33,6313.0,266.0,236.0
16:42:33,6313.0,266.0,236.0
16:42:33,6313.0,266.0,236.0
16:42:33,6211.0,266.0,237.0
16:42:33,6211.0,266.0,237.0
16:42:33,6211.0,266.0,237.0
16:42:33,6211.0,266.0,237.0
16:42:33,6337.0,267.0,237.0
16:42:33,6337.0,267.0,237.0
16:42:33,6337.0,267.0,237.0
16:42:33,6337.0,267.0,237.0
16:42:33,6329.0,267.0,236.0
16:42:33,6329.0,267.0,236.0
16:42:33,6329.0,267.0,236.0
16:42:33,6329.0,267.0,236.0
16:42:34,6382.0,266.0,237.0
16:42:34,6382.0,266.0,237.0
16:42:34,6382.0,266.0,237.0
16:42:34,6382.0,266.0,237.0
16:42:34,6481.0,266.0,237.0
16:42:34,6481.0,266.0,237.0
16:42:34,6481.0,266.0,237.0
16:42:34,6481.0,266.0,237.0
16:42:34,6308.0,268.0,237.0
16:42:34,6308.0,268.0,237.0
16:42:34,6308.0,268.0,237.0
16:42:34,6308.0,268.0,237.0
16:42:34,6055.0,267.0,237.0
16:42:34,6055.0,267.0,237.0
16:42:34,6055.0,267.0,237.0
16:42:34,6055.0,267.0,237.0
16:42:34,6204.0,266.0,236.0
16:42:34,6204.0,266.0,236.0
16:42:34,6204.0,266.0,236.0
16:42:34,6204.0,266.0,236.0
16:42:34,7526.0,268.0,237.0
16:42:34,7526.0,268.0,237.0
16:42:34,7526.0,268.0,237.0
16:42:34,7526.0,268.0,237.0
16:42:34,5785.0,268.0,236.0
16:42:34,5785.0,268.0,236.0
16:42:34,5785.0,268.0,236.0
16:42:34,5785.0,268.0,236.0
16:42:34,6153.0,265.0,236.0
16:42:34,6153.0,265.0,236.0
16:42:34,6153.0,265.0,236.0
16:42:34,6153.0,265.0,236.0
16:42:34,6225.0,268.0,238.0
16:42:34,6225.0,268.0,238.0
16:42:34,6225.0,268.0,238.0
16:42:34,6225.0,268.0,238.0
16:42:34,6180.0,267.0,237.0
16:42:34,6180.0,267.0,237.0
16:42:34,6180.0,267.0,237.0
16:42:34,6180.0,267.0,237.0
16:42:34,6139.0,266.0,237.0
16:42:34,6139.0,266.0,237.0
16:42:34,6139.0,266.0,237.0
16:42:34,6139.0,266.0,237.0
16:42:34,6335.0,268.0,238.0
16:42:34,6335.0,268.0,238.0
16:42:34,6335.0,268.0,238.0
16:42:34,6335.0,268.0,238.0
16:42:34,6364.0,268.0,237.0
16:42:34,6364.0,268.0,237.0
16:42:34,6364.0,268.0,237.0
16:42:34,6364.0,268.0,237.0
16:42:34,6551.0,266.0,237.0
16:42:34,6551.0,266.0,237.0
16:42:34,6551.0,266.0,237.0
16:42:34,6551.0,266.0,237.0
16:42:34,6281.0,268.0,238.0
16:42:34,6281.0,268.0,238.0
16:42:34,6281.0,268.0,238.0
16:42:34,6281.0,268.0,238.0
16:42:34,6295.0,268.0,237.0
16:42:34,6295.0,268.0,237.0
16:42:34,6295.0,268.0,237.0
16:42:34,6295.0,268.0,237.0
16:42:34,6461.0,266.0,238.0
16:42:34,6461.0,266.0,238.0
16:42:34,6461.0,266.0,238.0
16:42:34,6461.0,266.0,238.0
16:42:34,6389.0,267.0,237.0
16:42:34,6389.0,267.0,237.0
16:42:34,6389.0,267.0,237.0
16:42:34,6389.0,267.0,237.0
16:42:34,6615.0,266.0,238.0
16:42:34,6615.0,266.0,238.0
16:42:34,6615.0,266.0,238.0
16:42:34,6615.0,266.0,238.0
16:42:34,6644.0,268.0,238.0
16:42:34,6644.0,268.0,238.0
16:42:34,6644.0,268.0,238.0
16:42:34,6644.0,268.0,238.0
16:42:34,6512.0,268.0,238.0
16:42:34,6512.0,268.0,238.0
16:42:34,6512.0,268.0,238.0
16:42:34,6512.0,268.0,238.0
16:42:34,6517.0,267.0,240.0
16:42:34,6517.0,267.0,240.0
16:42:34,6517.0,267.0,240.0
16:42:34,6517.0,267.0,240.0
16:42:34,6519.0,269.0,239.0
16:42:34,6519.0,269.0,239.0
16:42:34,6519.0,269.0,239.0
16:42:34,6519.0,269.0,239.0
16:42:34,6589.0,267.0,238.0
16:42:34,6589.0,267.0,238.0
16:42:34,6589.0,267.0,238.0
16:42:34,6589.0,267.0,238.0
16:42:34,6472.0,269.0,238.0
16:42:34,6472.0,269.0,238.0
16:42:34,6472.0,269.0,238.0
16:42:34,6472.0,269.0,238.0
16:42:34,6596.0,267.0,238.0
16:42:34,6596.0,267.0,238.0
16:42:34,6596.0,267.0,238.0
16:42:34,6596.0,267.0,238.0
16:42:34,6406.0,268.0,238.0
16:42:34,6406.0,268.0,238.0
16:42:34,6406.0,268.0,238.0
16:42:34,6406.0,268.0,238.0
16:42:34,6412.0,268.0,238.0
16:42:34,6412.0,268.0,238.0
16:42:34,6412.0,268.0,238.0
16:42:34,6412.0,268.0,238.0
16:42:34,6440.0,268.0,238.0
16:42:34,6440.0,268.0,238.0
16:42:34,6440.0,268.0,238.0
16:42:34,6440.0,268.0,238.0
16:42:34,6498.0,268.0,238.0
16:42:34,6498.0,268.0,238.0
16:42:34,6498.0,268.0,238.0
16:42:34,6498.0,268.0,238.0
16:42:34,6361.0,269.0,238.0
16:42:34,6361.0,269.0,238.0
16:42:34,6361.0,269.0,238.0
16:42:34,6361.0,269.0,238.0
16:42:34,6360.0,268.0,238.0
16:42:34,6360.0,268.0,238.0
16:42:34,6360.0,268.0,238.0
16:42:34,6360.0,268.0,238.0
16:42:34,6550.0,268.0,238.0
16:42:34,6550.0,268.0,238.0
16:42:34,6550.0,268.0,238.0
16:42:34,6550.0,268.0,238.0
16:42:34,6582.0,269.0,237.0
16:42:34,6582.0,269.0,237.0
16:42:34,6582.0,269.0,237.0
16:42:34,6582.0,269.0,237.0
16:42:34,6797.0,267.0,239.0
16:42:34,6797.0,267.0,239.0
16:42:34,6797.0,267.0,239.0
16:42:34,6797.0,267.0,239.0
16:42:34,6707.0,268.0,237.0
16:42:34,6707.0,268.0,237.0
16:42:34,6707.0,268.0,237.0
16:42:34,6707.0,268.0,237.0
16:42:34,6614.0,267.0,236.0
16:42:34,6614.0,267.0,236.0
16:42:34,6614.0,267.0,236.0
16:42:34,6614.0,267.0,236.0
16:42:34,6256.0,268.0,237.0
16:42:34,6256.0,268.0,237.0
16:42:34,6256.0,268.0,237.0
16:42:34,6256.0,268.0,237.0
16:42:34,6190.0,268.0,237.0
16:42:34,6190.0,268.0,237.0
16:42:34,6190.0,268.0,237.0
16:42:34,6190.0,268.0,237.0
16:42:34,6156.0,266.0,237.0
16:42:34,6156.0,266.0,237.0
16:42:34,6156.0,266.0,237.0
16:42:34,6156.0,266.0,237.0
16:42:34,6202.0,267.0,237.0
16:42:34,6202.0,267.0,237.0
16:42:34,6202.0,267.0,237.0
16:42:34,6202.0,267.0,237.0
16:42:34,6578.0,267.0,236.0
16:42:34,6578.0,267.0,236.0
16:42:34,6578.0,267.0,236.0
16:42:34,6578.0,267.0,236.0
16:42:34,6617.0,267.0,237.0
16:42:34,6617.0,267.0,237.0
16:42:34,6617.0,267.0,237.0
16:42:34,6617.0,267.0,237.0
16:42:34,6877.0,267.0,238.0
16:42:34,6877.0,267.0,238.0
16:42:34,6877.0,267.0,238.0
16:42:34,6877.0,267.0,238.0
16:42:34,6753.0,267.0,237.0
16:42:34,6753.0,267.0,237.0
16:42:34,6753.0,267.0,237.0
16:42:34,6753.0,267.0,237.0
16:42:34,6605.0,266.0,236.0
16:42:34,6605.0,266.0,236.0
16:42:34,6605.0,266.0,236.0
16:42:34,6605.0,266.0,236.0
16:42:34,6370.0,267.0,237.0
16:42:34,6370.0,267.0,237.0
16:42:34,6370.0,267.0,237.0
16:42:34,6370.0,267.0,237.0
16:42:34,6371.0,267.0,236.0
16:42:34,6371.0,267.0,236.0
16:42:34,6371.0,267.0,236.0
16:42:34,6371.0,267.0,236.0
16:42:34,6285.0,266.0,235.0
16:42:34,6285.0,266.0,235.0
16:42:34,6285.0,266.0,235.0
16:42:34,6285.0,266.0,235.0
16:42:34,7082.0,266.0,235.0
16:42:34,7082.0,266.0,235.0
16:42:34,7082.0,266.0,235.0
16:42:34,7082.0,266.0,235.0
16:42:34,7177.0,266.0,236.0
16:42:35,7177.0,266.0,236.0
16:42:35,7177.0,266.0,236.0
16:42:35,7177.0,266.0,236.0
16:42:35,6370.0,264.0,236.0
16:42:35,6370.0,264.0,236.0
16:42:35,6370.0,264.0,236.0
16:42:35,6370.0,264.0,236.0
16:42:35,6265.0,266.0,236.0
16:42:35,6265.0,266.0,236.0
16:42:35,6265.0,266.0,236.0
16:42:35,6265.0,266.0,236.0
16:42:35,6366.0,266.0,235.0
16:42:35,6366.0,266.0,235.0
16:42:35,6366.0,266.0,235.0
16:42:35,6366.0,266.0,235.0
16:42:35,6372.0,264.0,236.0
16:42:35,6372.0,264.0,236.0
16:42:35,6372.0,264.0,236.0
16:42:35,6372.0,264.0,236.0
16:42:35,6288.0,266.0,236.0
16:42:35,6288.0,266.0,236.0
16:42:35,6288.0,266.0,236.0
16:42:35,6288.0,266.0,236.0
16:42:35,6354.0,265.0,235.0
16:42:35,6354.0,265.0,235.0
16:42:35,6354.0,265.0,235.0
16:42:35,6354.0,265.0,235.0
16:42:35,6334.0,265.0,236.0
16:42:35,6334.0,265.0,236.0
16:42:35,6334.0,265.0,236.0
16:42:35,6334.0,265.0,236.0
16:42:35,6464.0,266.0,235.0
16:42:35,6464.0,266.0,235.0
16:42:35,6464.0,266.0,235.0
16:42:35,6464.0,266.0,235.0
16:42:35,6522.0,266.0,236.0
16:42:35,6522.0,266.0,236.0
16:42:35,6522.0,266.0,236.0
16:42:35,6522.0,266.0,236.0
16:42:35,6942.0,265.0,236.0
16:42:35,6942.0,265.0,236.0
16:42:35,6942.0,265.0,236.0
16:42:35,6942.0,265.0,236.0
16:42:35,6418.0,265.0,235.0
16:42:35,6418.0,265.0,235.0
16:42:35,6418.0,265.0,235.0
16:42:35,6418.0,265.0,235.0
16:42:35,6554.0,266.0,235.0
16:42:35,6554.0,266.0,235.0
16:42:35,6554.0,266.0,235.0
16:42:35,6554.0,266.0,235.0
16:42:35,6512.0,265.0,234.0
16:42:35,6512.0,265.0,234.0
16:42:35,6512.0,265.0,234.0
16:42:35,6512.0,265.0,234.0
16:42:35,6444.0,264.0,235.0
16:42:35,6444.0,264.0,235.0
16:42:35,6444.0,264.0,235.0
16:42:35,6444.0,264.0,235.0
16:42:35,6366.0,265.0,236.0
16:42:35,6366.0,265.0,236.0
16:42:35,6366.0,265.0,236.0
16:42:35,6366.0,265.0,236.0
16:42:35,6328.0,264.0,235.0
16:42:35,6328.0,264.0,235.0
16:42:35,6328.0,264.0,235.0
16:42:35,6328.0,264.0,235.0
16:42:35,6279.0,263.0,236.0
16:42:35,6279.0,263.0,236.0
16:42:35,6279.0,263.0,236.0
16:42:35,6279.0,263.0,236.0
16:42:35,6188.0,266.0,235.0
16:42:35,6188.0,266.0,235.0
16:42:35,6188.0,266.0,235.0
16:42:35,6188.0,266.0,235.0
16:42:35,6212.0,265.0,234.0
16:42:35,6212.0,265.0,234.0
16:42:35,6212.0,265.0,234.0
16:42:35,6212.0,265.0,234.0
16:42:35,6375.0,265.0,235.0
16:42:35,6375.0,265.0,235.0
16:42:35,6375.0,265.0,235.0
16:42:35,6375.0,265.0,235.0
16:42:35,6254.0,265.0,235.0
16:42:35,6254.0,265.0,235.0
16:42:35,6254.0,265.0,235.0
16:42:35,6254.0,265.0,235.0
16:42:35,6322.0,264.0,237.0
16:42:35,6322.0,264.0,237.0
16:42:35,6322.0,264.0,237.0
16:42:35,6322.0,264.0,237.0
16:42:35,6485.0,266.0,236.0
16:42:35,6485.0,266.0,236.0
16:42:35,6485.0,266.0,236.0
16:42:35,6485.0,266.0,236.0
16:42:35,6503.0,266.0,234.0
16:42:35,6503.0,266.0,234.0
16:42:35,6503.0,266.0,234.0
16:42:35,6503.0,266.0,234.0
16:42:35,6299.0,265.0,236.0
16:42:35,6299.0,265.0,236.0
16:42:35,6299.0,265.0,236.0
16:42:35,6299.0,265.0,236.0
16:42:35,6242.0,265.0,237.0
16:42:35,6242.0,265.0,237.0
16:42:35,6242.0,265.0,237.0
16:42:35,6242.0,265.0,237.0
16:42:35,6131.0,266.0,236.0
16:42:35,6131.0,266.0,236.0
16:42:35,6131.0,266.0,236.0
16:42:35,6131.0,266.0,236.0
16:42:35,6168.0,264.0,236.0
16:42:35,6168.0,264.0,236.0
16:42:35,6168.0,264.0,236.0
16:42:35,6168.0,264.0,236.0
16:42:35,6149.0,266.0,238.0
16:42:35,6149.0,266.0,238.0
16:42:35,6149.0,266.0,238.0
16:42:35,6149.0,266.0,238.0
16:42:35,6256.0,266.0,236.0
16:42:35,6256.0,266.0,236.0
16:42:35,6256.0,266.0,236.0
16:42:35,6256.0,266.0,236.0
16:42:35,6360.0,267.0,237.0
16:42:35,6360.0,267.0,237.0
16:42:35,6360.0,267.0,237.0
16:42:35,6360.0,267.0,237.0
16:42:35,6421.0,266.0,236.0
16:42:35,6421.0,266.0,236.0
16:42:35,6421.0,266.0,236.0
16:42:35,6421.0,266.0,236.0
16:42:35,6243.0,265.0,237.0
16:42:35,6243.0,265.0,237.0
16:42:35,6243.0,265.0,237.0
16:42:35,6243.0,265.0,237.0
16:42:35,6333.0,267.0,237.0
16:42:35,6333.0,267.0,237.0
16:42:35,6333.0,267.0,237.0
16:42:35,6333.0,267.0,237.0
16:42:35,6304.0,267.0,236.0
16:42:35,6304.0,267.0,236.0
16:42:35,6304.0,267.0,236.0
16:42:35,6304.0,267.0,236.0
16:42:35,6253.0,267.0,237.0
16:42:35,6253.0,267.0,237.0
16:42:35,6253.0,267.0,237.0
16:42:35,6253.0,267.0,237.0
16:42:35,6359.0,267.0,237.0
16:42:35,6359.0,267.0,237.0
16:42:35,6359.0,267.0,237.0
16:42:35,6359.0,267.0,237.0
16:42:35,6407.0,267.0,237.0
16:42:35,6407.0,267.0,237.0
16:42:35,6407.0,267.0,237.0
16:42:35,6407.0,267.0,237.0
16:42:35,6206.0,266.0,237.0
16:42:35,6206.0,266.0,237.0
16:42:35,6206.0,266.0,237.0
16:42:35,6206.0,266.0,237.0
16:42:35,6286.0,266.0,236.0
16:42:35,6286.0,266.0,236.0
16:42:35,6286.0,266.0,236.0
16:42:35,6286.0,266.0,236.0
16:42:35,6454.0,267.0,237.0
16:42:35,6454.0,267.0,237.0
16:42:35,6454.0,267.0,237.0
16:42:35,6454.0,267.0,237.0
16:42:35,7624.0,266.0,237.0
16:42:35,7624.0,266.0,237.0
16:42:35,7624.0,266.0,237.0
16:42:35,7624.0,266.0,237.0
16:42:35,5944.0,267.0,237.0
16:42:35,5944.0,267.0,237.0
16:42:35,5944.0,267.0,237.0
16:42:35,5944.0,267.0,237.0
16:42:35,6254.0,268.0,237.0
16:42:35,6254.0,268.0,237.0
16:42:35,6254.0,268.0,237.0
16:42:35,6254.0,268.0,237.0
16:42:35,6049.0,267.0,236.0
16:42:35,6049.0,267.0,236.0
16:42:35,6049.0,267.0,236.0
16:42:35,6049.0,267.0,236.0
16:42:35,6246.0,267.0,236.0
16:42:35,6246.0,267.0,236.0
16:42:35,6246.0,267.0,236.0
16:42:35,6246.0,267.0,236.0
16:42:35,6305.0,268.0,238.0
16:42:35,6305.0,268.0,238.0
16:42:35,6305.0,268.0,238.0
16:42:35,6305.0,268.0,238.0
16:42:35,6257.0,267.0,238.0
16:42:35,6257.0,267.0,238.0
16:42:35,6257.0,267.0,238.0
16:42:35,6257.0,267.0,238.0
16:42:35,6215.0,267.0,237.0
16:42:35,6215.0,267.0,237.0
16:42:35,6215.0,267.0,237.0
16:42:35,6215.0,267.0,237.0
16:42:35,6286.0,268.0,239.0
16:42:35,6286.0,268.0,239.0
16:42:36,6286.0,268.0,239.0
16:42:36,6286.0,268.0,239.0
16:42:36,6396.0,268.0,238.0
16:42:36,6396.0,268.0,238.0
16:42:36,6396.0,268.0,238.0
16:42:36,6396.0,268.0,238.0
16:42:36,6381.0,267.0,239.0
16:42:36,6381.0,267.0,239.0
16:42:36,6381.0,267.0,239.0
16:42:36,6381.0,267.0,239.0
16:42:36,6574.0,268.0,238.0
16:42:36,6574.0,268.0,238.0
16:42:36,6574.0,268.0,238.0
16:42:36,6574.0,268.0,238.0
16:42:36,6563.0,268.0,238.0
16:42:36,6563.0,268.0,238.0
16:42:36,6563.0,268.0,238.0
16:42:36,6563.0,268.0,238.0
16:42:36,6592.0,267.0,239.0
16:42:36,6592.0,267.0,239.0
16:42:36,6592.0,267.0,239.0
16:42:36,6592.0,267.0,239.0
16:42:36,6464.0,267.0,239.0
16:42:36,6464.0,267.0,239.0
16:42:36,6464.0,267.0,239.0
16:42:36,6464.0,267.0,239.0
16:42:36,6324.0,268.0,238.0
16:42:36,6324.0,268.0,238.0
16:42:36,6324.0,268.0,238.0
16:42:36,6324.0,268.0,238.0
16:42:36,6357.0,267.0,238.0
16:42:36,6357.0,267.0,238.0
16:42:36,6357.0,267.0,238.0
16:42:36,6357.0,267.0,238.0
16:42:36,6334.0,268.0,239.0
16:42:36,6334.0,268.0,239.0
16:42:36,6334.0,268.0,239.0
16:42:36,6334.0,268.0,239.0
16:42:36,6385.0,269.0,238.0
16:42:36,6385.0,269.0,238.0
16:42:36,6385.0,269.0,238.0
16:42:36,6385.0,269.0,238.0
16:42:36,6462.0,269.0,237.0
16:42:36,6462.0,269.0,237.0
16:42:36,6462.0,269.0,237.0
16:42:36,6462.0,269.0,237.0
16:42:36,6477.0,268.0,238.0
16:42:36,6477.0,268.0,238.0
16:42:36,6477.0,268.0,238.0
16:42:36,6477.0,268.0,238.0
16:42:36,6294.0,269.0,238.0
16:42:36,6294.0,269.0,238.0
16:42:36,6294.0,269.0,238.0
16:42:36,6294.0,269.0,238.0
16:42:36,6412.0,268.0,237.0
16:42:36,6412.0,268.0,237.0
16:42:36,6412.0,268.0,237.0
16:42:36,6412.0,268.0,237.0
16:42:36,6459.0,269.0,239.0
16:42:36,6459.0,269.0,239.0
16:42:36,6459.0,269.0,239.0
16:42:36,6459.0,269.0,239.0
16:42:36,6505.0,268.0,237.0
16:42:36,6505.0,268.0,237.0
16:42:36,6505.0,268.0,237.0
16:42:36,6505.0,268.0,237.0
16:42:36,6381.0,267.0,237.0
16:42:36,6381.0,267.0,237.0
16:42:36,6381.0,267.0,237.0
16:42:36,6381.0,267.0,237.0
16:42:36,6185.0,268.0,238.0
16:42:36,6185.0,268.0,238.0
16:42:36,6185.0,268.0,238.0
16:42:36,6185.0,268.0,238.0
16:42:36,6523.0,268.0,238.0
16:42:36,6523.0,268.0,238.0
16:42:36,6523.0,268.0,238.0
16:42:36,6523.0,268.0,238.0
16:42:36,6381.0,266.0,236.0
16:42:36,6381.0,266.0,236.0
16:42:36,6381.0,266.0,236.0
16:42:36,6381.0,266.0,236.0
16:42:36,6420.0,268.0,237.0
16:42:36,6420.0,268.0,237.0
16:42:36,6420.0,268.0,237.0
16:42:36,6420.0,268.0,237.0
16:42:36,6599.0,267.0,237.0
16:42:36,6599.0,267.0,237.0
16:42:36,6599.0,267.0,237.0
16:42:36,6599.0,267.0,237.0
16:42:36,6412.0,265.0,237.0
16:42:36,6412.0,265.0,237.0
16:42:36,6412.0,265.0,237.0
16:42:36,6412.0,265.0,237.0
16:42:36,6528.0,267.0,236.0
16:42:36,6528.0,267.0,236.0
16:42:36,6528.0,267.0,236.0
16:42:36,6528.0,267.0,236.0
16:42:36,6441.0,267.0,236.0
16:42:36,6441.0,267.0,236.0
16:42:36,6441.0,267.0,236.0
16:42:36,6441.0,267.0,236.0
16:42:36,6462.0,265.0,237.0
16:42:36,6462.0,265.0,237.0
16:42:36,6462.0,265.0,237.0
16:42:36,6462.0,265.0,237.0
16:42:36,6417.0,266.0,235.0
16:42:36,6417.0,266.0,235.0
16:42:36,6417.0,266.0,235.0
16:42:36,6417.0,266.0,235.0
16:42:36,6619.0,266.0,237.0
16:42:36,6619.0,266.0,237.0
16:42:36,6619.0,266.0,237.0
16:42:36,6619.0,266.0,237.0
16:42:36,6422.0,267.0,236.0
16:42:36,6422.0,267.0,236.0
16:42:36,6422.0,267.0,236.0
16:42:36,6422.0,267.0,236.0
16:42:36,6527.0,264.0,235.0
16:42:36,6527.0,264.0,235.0
16:42:36,6527.0,264.0,235.0
16:42:36,6527.0,264.0,235.0
16:42:36,6508.0,266.0,236.0
16:42:36,6508.0,266.0,236.0
16:42:36,6508.0,266.0,236.0
16:42:36,6508.0,266.0,236.0
16:42:36,7929.0,266.0,235.0
16:42:36,7929.0,266.0,235.0
16:42:36,7929.0,266.0,235.0
16:42:36,7929.0,266.0,235.0
16:42:36,6017.0,265.0,235.0
16:42:36,6017.0,265.0,235.0
16:42:36,6017.0,265.0,235.0
16:42:36,6017.0,265.0,235.0
16:42:36,6278.0,265.0,236.0
16:42:36,6278.0,265.0,236.0
16:42:36,6278.0,265.0,236.0
16:42:36,6278.0,265.0,236.0
16:42:36,6405.0,265.0,236.0
16:42:36,6405.0,265.0,236.0
16:42:36,6405.0,265.0,236.0
16:42:36,6405.0,265.0,236.0
16:42:36,6364.0,265.0,234.0
16:42:36,6364.0,265.0,234.0
16:42:36,6364.0,265.0,234.0
16:42:36,6364.0,265.0,234.0
16:42:36,6459.0,266.0,236.0
16:42:36,6459.0,266.0,236.0
16:42:36,6459.0,266.0,236.0
16:42:36,6459.0,266.0,236.0
16:42:36,6505.0,265.0,235.0
16:42:36,6505.0,265.0,235.0
16:42:36,6505.0,265.0,235.0
16:42:36,6505.0,265.0,235.0
16:42:36,6447.0,264.0,235.0
16:42:36,6447.0,264.0,235.0
16:42:36,6447.0,264.0,235.0
16:42:36,6447.0,264.0,235.0
16:42:36,6429.0,266.0,235.0
16:42:36,6429.0,266.0,235.0
16:42:36,6429.0,266.0,235.0
16:42:36,6429.0,266.0,235.0
16:42:36,6617.0,264.0,234.0
16:42:36,6617.0,264.0,234.0
16:42:36,6617.0,264.0,234.0
16:42:36,6617.0,264.0,234.0
16:42:36,6514.0,265.0,235.0
16:42:36,6514.0,265.0,235.0
16:42:36,6514.0,265.0,235.0
16:42:36,6514.0,265.0,235.0
16:42:36,6638.0,265.0,236.0
16:42:36,6638.0,265.0,236.0
16:42:36,6638.0,265.0,236.0
16:42:36,6638.0,265.0,236.0
16:42:36,6437.0,265.0,235.0
16:42:36,6437.0,265.0,235.0
16:42:36,6437.0,265.0,235.0
16:42:36,6437.0,265.0,235.0
16:42:36,6600.0,264.0,235.0
16:42:36,6600.0,264.0,235.0
16:42:36,6600.0,264.0,235.0
16:42:36,6600.0,264.0,235.0
16:42:36,6519.0,265.0,235.0
16:42:36,6519.0,265.0,235.0
16:42:36,6519.0,265.0,235.0
16:42:36,6519.0,265.0,235.0
16:42:36,6346.0,265.0,234.0
16:42:36,6346.0,265.0,234.0
16:42:36,6346.0,265.0,234.0
16:42:36,6346.0,265.0,234.0
16:42:36,6620.0,264.0,236.0
16:42:36,6620.0,264.0,236.0
16:42:36,6620.0,264.0,236.0
16:42:36,6620.0,264.0,236.0
16:42:36,6485.0,266.0,236.0
16:42:36,6485.0,266.0,236.0
16:42:36,6485.0,266.0,236.0
16:42:36,6485.0,266.0,236.0
16:42:36,6299.0,265.0,235.0
16:42:36,6299.0,265.0,235.0
16:42:36,6299.0,265.0,235.0
16:42:37,6299.0,265.0,235.0
16:42:37,6411.0,263.0,235.0
16:42:37,6411.0,263.0,235.0
16:42:37,6411.0,263.0,235.0
16:42:37,6411.0,263.0,235.0
16:42:37,6560.0,265.0,234.0
16:42:37,6560.0,265.0,234.0
16:42:37,6560.0,265.0,234.0
16:42:37,6560.0,265.0,234.0
16:42:37,6455.0,265.0,236.0
16:42:37,6455.0,265.0,236.0
16:42:37,6455.0,265.0,236.0
16:42:37,6455.0,265.0,236.0
16:42:37,6518.0,265.0,237.0
16:42:37,6518.0,265.0,237.0
16:42:37,6518.0,265.0,237.0
16:42:37,6518.0,265.0,237.0
16:42:37,6501.0,265.0,235.0
16:42:37,6501.0,265.0,235.0
16:42:37,6501.0,265.0,235.0
16:42:37,6501.0,265.0,235.0
16:42:37,6382.0,264.0,237.0
16:42:37,6382.0,264.0,237.0
16:42:37,6382.0,264.0,237.0
16:42:37,6382.0,264.0,237.0
16:42:37,6483.0,265.0,236.0
16:42:37,6483.0,265.0,236.0
16:42:37,6483.0,265.0,236.0
16:42:37,6483.0,265.0,236.0
16:42:37,6483.0,266.0,236.0
16:42:37,6483.0,266.0,236.0
16:42:37,6483.0,266.0,236.0
16:42:37,6483.0,266.0,236.0
16:42:37,6478.0,266.0,236.0
16:42:37,6478.0,266.0,236.0
16:42:37,6478.0,266.0,236.0
16:42:37,6478.0,266.0,236.0
16:42:37,6617.0,265.0,236.0
16:42:37,6617.0,265.0,236.0
16:42:37,6617.0,265.0,236.0
16:42:37,6617.0,265.0,236.0
16:42:37,6624.0,265.0,236.0
16:42:37,6624.0,265.0,236.0
16:42:37,6624.0,265.0,236.0
16:42:37,6624.0,265.0,236.0
16:42:37,6507.0,267.0,237.0
16:42:37,6507.0,267.0,237.0
16:42:37,6507.0,267.0,237.0
16:42:37,6507.0,267.0,237.0
16:42:37,6575.0,266.0,237.0
16:42:37,6575.0,266.0,237.0
16:42:37,6575.0,266.0,237.0
16:42:37,6575.0,266.0,237.0
16:42:37,6483.0,266.0,238.0
16:42:37,6483.0,266.0,238.0
16:42:37,6483.0,266.0,238.0
16:42:37,6483.0,266.0,238.0
16:42:37,6641.0,266.0,237.0
16:42:37,6641.0,266.0,237.0
16:42:37,6641.0,266.0,237.0
16:42:37,6641.0,266.0,237.0
16:42:37,6472.0,267.0,237.0
16:42:37,6472.0,267.0,237.0
16:42:37,6472.0,267.0,237.0
16:42:37,6472.0,267.0,237.0
16:42:37,7260.0,266.0,237.0
16:42:37,7260.0,266.0,237.0
16:42:37,7260.0,266.0,237.0
16:42:37,7260.0,266.0,237.0
16:42:37,6715.0,267.0,237.0
16:42:37,6715.0,267.0,237.0
16:42:37,6715.0,267.0,237.0
16:42:37,6715.0,267.0,237.0
16:42:37,6491.0,267.0,237.0
16:42:37,6491.0,267.0,237.0
16:42:37,6491.0,267.0,237.0
16:42:37,6491.0,267.0,237.0
16:42:37,6379.0,267.0,237.0
16:42:37,6379.0,267.0,237.0
16:42:37,6379.0,267.0,237.0
16:42:37,6379.0,267.0,237.0
16:42:37,6437.0,267.0,238.0
16:42:37,6437.0,267.0,238.0
16:42:37,6437.0,267.0,238.0
16:42:37,6437.0,267.0,238.0
16:42:37,6677.0,267.0,238.0
16:42:37,6677.0,267.0,238.0
16:42:37,6677.0,267.0,238.0
16:42:37,6677.0,267.0,238.0
16:42:37,6434.0,266.0,236.0
16:42:37,6434.0,266.0,236.0
16:42:37,6434.0,266.0,236.0
16:42:37,6434.0,266.0,236.0
16:42:37,6464.0,267.0,237.0
16:42:37,6464.0,267.0,237.0
16:42:37,6464.0,267.0,237.0
16:42:37,6464.0,267.0,237.0
16:42:37,6695.0,267.0,237.0
16:42:37,6695.0,267.0,237.0
16:42:37,6695.0,267.0,237.0
16:42:37,6695.0,267.0,237.0
16:42:37,6434.0,266.0,238.0
16:42:37,6434.0,266.0,238.0
16:42:37,6434.0,266.0,238.0
16:42:37,6434.0,266.0,238.0
16:42:37,6702.0,267.0,236.0
16:42:37,6702.0,267.0,236.0
16:42:37,6702.0,267.0,236.0
16:42:37,6702.0,267.0,236.0
16:42:37,6556.0,267.0,237.0
16:42:37,6556.0,267.0,237.0
16:42:37,6556.0,267.0,237.0
16:42:37,6556.0,267.0,237.0
16:42:37,6776.0,266.0,238.0
16:42:37,6776.0,266.0,238.0
16:42:37,6776.0,266.0,238.0
16:42:37,6776.0,266.0,238.0
16:42:37,6750.0,267.0,236.0
16:42:37,6750.0,267.0,236.0
16:42:37,6750.0,267.0,236.0
16:42:37,6750.0,267.0,236.0
16:42:37,6828.0,267.0,238.0
16:42:37,6828.0,267.0,238.0
16:42:37,6828.0,267.0,238.0
16:42:37,6828.0,267.0,238.0
16:42:37,6629.0,268.0,237.0
16:42:37,6629.0,268.0,237.0
16:42:37,6629.0,268.0,237.0
16:42:37,6629.0,268.0,237.0
16:42:37,6513.0,267.0,238.0
16:42:37,6513.0,267.0,238.0
16:42:37,6513.0,267.0,238.0
16:42:37,6513.0,267.0,238.0
16:42:37,6478.0,267.0,238.0
16:42:37,6478.0,267.0,238.0
16:42:37,6478.0,267.0,238.0
16:42:37,6478.0,267.0,238.0
16:42:37,6285.0,267.0,239.0
16:42:37,6285.0,267.0,239.0
16:42:37,6285.0,267.0,239.0
16:42:37,6285.0,267.0,239.0
16:42:37,6501.0,268.0,239.0
16:42:37,6501.0,268.0,239.0
16:42:37,6501.0,268.0,239.0
16:42:37,6501.0,268.0,239.0
16:42:37,6586.0,268.0,239.0
16:42:37,6586.0,268.0,239.0
16:42:37,6586.0,268.0,239.0
16:42:37,6586.0,268.0,239.0
16:42:37,6554.0,268.0,238.0
16:42:37,6554.0,268.0,238.0
16:42:37,6554.0,268.0,238.0
16:42:37,6554.0,268.0,238.0
16:42:37,6510.0,267.0,238.0
16:42:37,6510.0,267.0,238.0
16:42:37,6510.0,267.0,238.0
16:42:37,6510.0,267.0,238.0
16:42:37,6583.0,269.0,238.0
16:42:37,6583.0,269.0,238.0
16:42:37,6583.0,269.0,238.0
16:42:37,6583.0,269.0,238.0
16:42:37,6617.0,267.0,239.0
16:42:37,6617.0,267.0,239.0
16:42:37,6617.0,267.0,239.0
16:42:37,6617.0,267.0,239.0
16:42:37,6276.0,268.0,238.0
16:42:37,6276.0,268.0,238.0
16:42:37,6276.0,268.0,238.0
16:42:37,6276.0,268.0,238.0
16:42:37,6258.0,268.0,238.0
16:42:37,6258.0,268.0,238.0
16:42:37,6258.0,268.0,238.0
16:42:37,6258.0,268.0,238.0
16:42:37,6408.0,269.0,237.0
16:42:37,6408.0,269.0,237.0
16:42:37,6408.0,269.0,237.0
16:42:37,6408.0,269.0,237.0
16:42:37,6375.0,268.0,238.0
16:42:37,6375.0,268.0,238.0
16:42:37,6375.0,268.0,238.0
16:42:37,6375.0,268.0,238.0
16:42:37,6536.0,268.0,237.0
16:42:37,6536.0,268.0,237.0
16:42:37,6536.0,268.0,237.0
16:42:37,6536.0,268.0,237.0
16:42:37,6505.0,267.0,239.0
16:42:37,6505.0,267.0,239.0
16:42:37,6505.0,267.0,239.0
16:42:37,6505.0,267.0,239.0
16:42:37,6512.0,267.0,238.0
16:42:37,6512.0,267.0,238.0
16:42:37,6512.0,267.0,238.0
16:42:37,6512.0,267.0,238.0
16:42:37,6242.0,267.0,237.0
16:42:37,6242.0,267.0,237.0
16:42:37,6242.0,267.0,237.0
16:42:37,6242.0,267.0,237.0
16:42:37,6309.0,267.0,237.0
16:42:37,6309.0,267.0,237.0
16:42:37,6309.0,267.0,237.0
16:42:37,6309.0,267.0,237.0
16:42:38,6235.0,267.0,237.0
16:42:38,6235.0,267.0,237.0
16:42:38,6235.0,267.0,237.0
16:42:38,6235.0,267.0,237.0
16:42:38,6444.0,267.0,236.0
16:42:38,6444.0,267.0,236.0
16:42:38,6444.0,267.0,236.0
16:42:38,6444.0,267.0,236.0
16:42:38,6387.0,267.0,237.0
16:42:38,6387.0,267.0,237.0
16:42:38,6387.0,267.0,237.0
16:42:38,6387.0,267.0,237.0
16:42:38,6543.0,267.0,238.0
16:42:38,6543.0,267.0,238.0
16:42:38,6543.0,267.0,238.0
16:42:38,6543.0,267.0,238.0
16:42:38,6316.0,267.0,236.0
16:42:38,6316.0,267.0,236.0
16:42:38,6316.0,267.0,236.0
16:42:38,6316.0,267.0,236.0
16:42:38,6362.0,266.0,237.0
16:42:38,6362.0,266.0,237.0
16:42:38,6362.0,266.0,237.0
16:42:38,6362.0,266.0,237.0
16:42:38,6262.0,266.0,237.0
16:42:38,6262.0,266.0,237.0
16:42:38,6262.0,266.0,237.0
16:42:38,6262.0,266.0,237.0
16:42:38,6344.0,267.0,235.0
16:42:38,6344.0,267.0,235.0
16:42:38,6344.0,267.0,235.0
16:42:38,6344.0,267.0,235.0
16:42:38,6345.0,266.0,237.0
16:42:38,6345.0,266.0,237.0
16:42:38,6345.0,266.0,237.0
16:42:38,6345.0,266.0,237.0
16:42:38,6368.0,266.0,236.0
16:42:38,6368.0,266.0,236.0
16:42:38,6368.0,266.0,236.0
16:42:38,6368.0,266.0,236.0
16:42:38,6292.0,266.0,235.0
16:42:38,6292.0,266.0,235.0
16:42:38,6292.0,266.0,235.0
16:42:38,6292.0,266.0,235.0
16:42:38,6361.0,266.0,236.0
16:42:38,6361.0,266.0,236.0
16:42:38,6361.0,266.0,236.0
16:42:38,6361.0,266.0,236.0
16:42:38,7380.0,266.0,235.0
16:42:38,7380.0,266.0,235.0
16:42:38,7380.0,266.0,235.0
16:42:38,7380.0,266.0,235.0
16:42:38,6718.0,265.0,235.0
16:42:38,6718.0,265.0,235.0
16:42:38,6718.0,265.0,235.0
16:42:38,6718.0,265.0,235.0
16:42:38,6258.0,267.0,235.0
16:42:38,6258.0,267.0,235.0
16:42:38,6258.0,267.0,235.0
16:42:38,6258.0,267.0,235.0
16:42:38,6136.0,265.0,236.0
16:42:38,6136.0,265.0,236.0
16:42:38,6136.0,265.0,236.0
16:42:38,6136.0,265.0,236.0
16:42:38,6201.0,265.0,236.0
16:42:38,6201.0,265.0,236.0
16:42:38,6201.0,265.0,236.0
16:42:38,6201.0,265.0,236.0
16:42:38,6395.0,266.0,235.0
16:42:38,6395.0,266.0,235.0
16:42:38,6395.0,266.0,235.0
16:42:38,6395.0,266.0,235.0
16:42:38,6350.0,265.0,235.0
16:42:38,6350.0,265.0,235.0
16:42:38,6350.0,265.0,235.0
16:42:38,6350.0,265.0,235.0
16:42:38,6372.0,265.0,236.0
16:42:38,6372.0,265.0,236.0
16:42:38,6372.0,265.0,236.0
16:42:38,6372.0,265.0,236.0
16:42:38,6408.0,264.0,235.0
16:42:38,6408.0,264.0,235.0
16:42:38,6408.0,264.0,235.0
16:42:38,6408.0,264.0,235.0
16:42:38,6422.0,266.0,235.0
16:42:38,6422.0,266.0,235.0
16:42:38,6422.0,266.0,235.0
16:42:38,6422.0,266.0,235.0
16:42:38,6443.0,265.0,234.0
16:42:38,6443.0,265.0,234.0
16:42:38,6443.0,265.0,234.0
16:42:38,6443.0,265.0,234.0
16:42:38,6490.0,265.0,234.0
16:42:38,6490.0,265.0,234.0
16:42:38,6490.0,265.0,234.0
16:42:38,6490.0,265.0,234.0
16:42:38,6400.0,264.0,236.0
16:42:38,6400.0,264.0,236.0
16:42:38,6400.0,264.0,236.0
16:42:38,6400.0,264.0,236.0
16:42:38,6478.0,265.0,236.0
16:42:38,6478.0,265.0,236.0
16:42:38,6478.0,265.0,236.0
16:42:38,6478.0,265.0,236.0
16:42:38,6401.0,264.0,234.0
16:42:38,6401.0,264.0,234.0
16:42:38,6401.0,264.0,234.0
16:42:38,6401.0,264.0,234.0
16:42:38,6351.0,265.0,236.0
16:42:38,6351.0,265.0,236.0
16:42:38,6351.0,265.0,236.0
16:42:38,6351.0,265.0,236.0
16:42:38,6091.0,264.0,235.0
16:42:38,6091.0,264.0,235.0
16:42:38,6091.0,264.0,235.0
16:42:38,6091.0,264.0,235.0
16:42:38,6261.0,266.0,236.0
16:42:38,6261.0,266.0,236.0
16:42:38,6261.0,266.0,236.0
16:42:38,6261.0,266.0,236.0
16:42:38,6065.0,265.0,235.0
16:42:38,6065.0,265.0,235.0
16:42:38,6065.0,265.0,235.0
16:42:38,6065.0,265.0,235.0
16:42:38,5994.0,266.0,235.0
16:42:38,5994.0,266.0,235.0
16:42:38,5994.0,266.0,235.0
16:42:38,5994.0,266.0,235.0
16:42:38,6054.0,265.0,234.0
16:42:38,6054.0,265.0,234.0
16:42:38,6054.0,265.0,234.0
16:42:38,6054.0,265.0,234.0
16:42:38,6024.0,264.0,235.0
16:42:38,6024.0,264.0,235.0
16:42:38,6024.0,264.0,235.0
16:42:38,6024.0,264.0,235.0
16:42:38,6199.0,266.0,236.0
16:42:38,6199.0,266.0,236.0
16:42:38,6199.0,266.0,236.0
16:42:38,6199.0,266.0,236.0
16:42:38,6134.0,266.0,236.0
16:42:38,6134.0,266.0,236.0
16:42:38,6134.0,266.0,236.0
16:42:38,6134.0,266.0,236.0
16:42:38,6183.0,264.0,237.0
16:42:38,6183.0,264.0,237.0
16:42:38,6183.0,264.0,237.0
16:42:38,6183.0,264.0,237.0
16:42:38,6158.0,265.0,237.0
16:42:38,6158.0,265.0,237.0
16:42:38,6158.0,265.0,237.0
16:42:38,6158.0,265.0,237.0
16:42:38,6045.0,265.0,236.0
16:42:38,6045.0,265.0,236.0
16:42:38,6045.0,265.0,236.0
16:42:38,6045.0,265.0,236.0
16:42:38,6050.0,265.0,236.0
16:42:38,6050.0,265.0,236.0
16:42:38,6050.0,265.0,236.0
16:42:38,6050.0,265.0,236.0
16:42:38,5980.0,266.0,236.0
16:42:38,5980.0,266.0,236.0
16:42:38,5980.0,266.0,236.0
16:42:38,5980.0,266.0,236.0
16:42:38,6055.0,266.0,237.0
16:42:38,6055.0,266.0,237.0
16:42:38,6055.0,266.0,237.0
16:42:38,6055.0,266.0,237.0
16:42:38,6027.0,266.0,237.0
16:42:38,6027.0,266.0,237.0
16:42:38,6027.0,266.0,237.0
16:42:38,6027.0,266.0,237.0
16:42:38,6117.0,266.0,236.0
16:42:38,6117.0,266.0,236.0
16:42:38,6117.0,266.0,236.0
16:42:38,6117.0,266.0,236.0
16:42:38,5972.0,266.0,237.0
16:42:38,5972.0,266.0,237.0
16:42:38,5972.0,266.0,237.0
16:42:38,5972.0,266.0,237.0
16:42:38,6205.0,266.0,238.0
16:42:38,6205.0,266.0,238.0
16:42:38,6205.0,266.0,238.0
16:42:38,6205.0,266.0,238.0
16:42:38,6191.0,266.0,237.0
16:42:38,6191.0,266.0,237.0
16:42:38,6191.0,266.0,237.0
16:42:38,6191.0,266.0,237.0
16:42:38,5993.0,266.0,236.0
16:42:38,5993.0,266.0,236.0
16:42:38,5993.0,266.0,236.0
16:42:38,5993.0,266.0,236.0
16:42:38,6033.0,266.0,237.0
16:42:38,6033.0,266.0,237.0
16:42:38,6033.0,266.0,237.0
16:42:38,6033.0,266.0,237.0
16:42:38,6252.0,266.0,237.0
16:42:38,6252.0,266.0,237.0
16:42:38,6252.0,266.0,237.0
16:42:38,6252.0,266.0,237.0
16:42:39,6153.0,268.0,237.0
16:42:39,6153.0,268.0,237.0
16:42:39,6153.0,268.0,237.0
16:42:39,6153.0,268.0,237.0
16:42:39,6130.0,267.0,237.0
16:42:39,6130.0,267.0,237.0
16:42:39,6130.0,267.0,237.0
16:42:39,6130.0,267.0,237.0
16:42:39,6216.0,267.0,237.0
16:42:39,6216.0,267.0,237.0
16:42:39,6216.0,267.0,237.0
16:42:39,6216.0,267.0,237.0
16:42:39,5941.0,267.0,238.0
16:42:39,5941.0,267.0,238.0
16:42:39,5941.0,267.0,238.0
16:42:39,5941.0,267.0,238.0
16:42:39,6049.0,265.0,238.0
16:42:39,6049.0,265.0,238.0
16:42:39,6049.0,265.0,238.0
16:42:39,6049.0,265.0,238.0
16:42:39,6109.0,266.0,237.0
16:42:39,6109.0,266.0,237.0
16:42:39,6109.0,266.0,237.0
16:42:39,6109.0,266.0,237.0
16:42:39,6761.0,266.0,237.0
16:42:39,6761.0,266.0,237.0
16:42:39,6761.0,266.0,237.0
16:42:39,6761.0,266.0,237.0
16:42:39,6705.0,267.0,237.0
16:42:39,6705.0,267.0,237.0
16:42:39,6705.0,267.0,237.0
16:42:39,6705.0,267.0,237.0
16:42:39,5856.0,267.0,238.0
16:42:39,5856.0,267.0,238.0
16:42:39,5856.0,267.0,238.0
16:42:39,5856.0,267.0,238.0
16:42:39,5793.0,268.0,237.0
16:42:39,5793.0,268.0,237.0
16:42:39,5793.0,268.0,237.0
16:42:39,5793.0,268.0,237.0
16:42:39,5876.0,266.0,238.0
16:42:39,5876.0,266.0,238.0
16:42:39,5876.0,266.0,238.0
16:42:39,5876.0,266.0,238.0
16:42:39,6194.0,267.0,238.0
16:42:39,6194.0,267.0,238.0
16:42:39,6194.0,267.0,238.0
16:42:39,6194.0,267.0,238.0
16:42:39,5847.0,269.0,237.0
16:42:39,5847.0,269.0,237.0
16:42:39,5847.0,269.0,237.0
16:42:39,5847.0,269.0,237.0
16:42:39,6053.0,267.0,238.0
16:42:39,6053.0,267.0,238.0
16:42:39,6053.0,267.0,238.0
16:42:39,6053.0,267.0,238.0
16:42:39,6086.0,267.0,236.0
16:42:39,6086.0,267.0,236.0
16:42:39,6086.0,267.0,236.0
16:42:39,6086.0,267.0,236.0
16:42:39,6146.0,267.0,238.0
16:42:39,6146.0,267.0,238.0
16:42:39,6146.0,267.0,238.0
16:42:39,6146.0,267.0,238.0
16:42:39,6022.0,268.0,239.0
16:42:39,6022.0,268.0,239.0
16:42:39,6022.0,268.0,239.0
16:42:39,6022.0,268.0,239.0
16:42:39,6149.0,268.0,238.0
16:42:39,6149.0,268.0,238.0
16:42:39,6149.0,268.0,238.0
16:42:39,6149.0,268.0,238.0
16:42:39,6352.0,267.0,238.0
16:42:39,6352.0,267.0,238.0
16:42:39,6352.0,267.0,238.0
16:42:39,6352.0,267.0,238.0
16:42:39,6367.0,268.0,238.0
16:42:39,6367.0,268.0,238.0
16:42:39,6367.0,268.0,238.0
16:42:39,6367.0,268.0,238.0
16:42:39,6142.0,268.0,238.0
16:42:39,6142.0,268.0,238.0
16:42:39,6142.0,268.0,238.0
16:42:39,6142.0,268.0,238.0
16:42:39,6016.0,267.0,238.0
16:42:39,6016.0,267.0,238.0
16:42:39,6016.0,267.0,238.0
16:42:39,6016.0,267.0,238.0
16:42:39,5959.0,268.0,239.0
16:42:39,5959.0,268.0,239.0
16:42:39,5959.0,268.0,239.0
16:42:39,5959.0,268.0,239.0
16:42:39,5959.0,268.0,239.0
16:42:39,5959.0,268.0,239.0
16:42:39,5959.0,268.0,239.0
16:42:39,5959.0,268.0,239.0
16:42:39,6110.0,267.0,237.0
16:42:39,6110.0,267.0,237.0
16:42:39,6110.0,267.0,237.0
16:42:39,6110.0,267.0,237.0
16:42:39,6106.0,268.0,238.0
16:42:39,6106.0,268.0,238.0
16:42:39,6106.0,268.0,238.0
16:42:39,6106.0,268.0,238.0
16:42:39,6337.0,268.0,238.0
16:42:39,6337.0,268.0,238.0
16:42:39,6337.0,268.0,238.0
16:42:39,6337.0,268.0,238.0
16:42:39,6338.0,267.0,238.0
16:42:39,6338.0,267.0,238.0
16:42:39,6338.0,267.0,238.0
16:42:39,6338.0,267.0,238.0
16:42:39,6167.0,268.0,238.0
16:42:39,6167.0,268.0,238.0
16:42:39,6167.0,268.0,238.0
16:42:39,6167.0,268.0,238.0
16:42:39,6183.0,267.0,237.0
16:42:39,6183.0,267.0,237.0
16:42:39,6183.0,267.0,237.0
16:42:39,6183.0,267.0,237.0
16:42:39,6320.0,267.0,238.0
16:42:39,6320.0,267.0,238.0
16:42:39,6320.0,267.0,238.0
16:42:39,6320.0,267.0,238.0
16:42:39,6287.0,269.0,237.0
16:42:39,6287.0,269.0,237.0
16:42:39,6287.0,269.0,237.0
16:42:39,6287.0,269.0,237.0
16:42:39,6381.0,267.0,237.0
16:42:39,6381.0,267.0,237.0
16:42:39,6381.0,267.0,237.0
16:42:39,6381.0,267.0,237.0
16:42:39,6487.0,267.0,237.0
16:42:39,6487.0,267.0,237.0
16:42:39,6487.0,267.0,237.0
16:42:39,6487.0,267.0,237.0
16:42:39,6472.0,267.0,238.0
16:42:39,6472.0,267.0,238.0
16:42:39,6472.0,267.0,238.0
16:42:39,6472.0,267.0,238.0
16:42:39,6245.0,267.0,237.0
16:42:39,6245.0,267.0,237.0
16:42:39,6245.0,267.0,237.0
16:42:39,6245.0,267.0,237.0
16:42:39,6490.0,267.0,237.0
16:42:39,6490.0,267.0,237.0
16:42:39,6490.0,267.0,237.0
16:42:39,6490.0,267.0,237.0
16:42:39,6408.0,267.0,236.0
16:42:39,6408.0,267.0,236.0
16:42:39,6408.0,267.0,236.0
16:42:39,6408.0,267.0,236.0
16:42:39,6183.0,266.0,237.0
16:42:39,6183.0,266.0,237.0
16:42:39,6183.0,266.0,237.0
16:42:39,6183.0,266.0,237.0
16:42:39,6319.0,267.0,236.0
16:42:39,6319.0,267.0,236.0
16:42:39,6319.0,267.0,236.0
16:42:39,6319.0,267.0,236.0
16:42:39,6469.0,266.0,235.0
16:42:39,6469.0,266.0,235.0
16:42:39,6469.0,266.0,235.0
16:42:39,6469.0,266.0,235.0
16:42:39,6346.0,266.0,236.0
16:42:39,6346.0,266.0,236.0
16:42:39,6346.0,266.0,236.0
16:42:39,6346.0,266.0,236.0
16:42:39,6436.0,266.0,237.0
16:42:39,6436.0,266.0,237.0
16:42:39,6436.0,266.0,237.0
16:42:39,6436.0,266.0,237.0
16:42:39,6365.0,266.0,235.0
16:42:39,6365.0,266.0,235.0
16:42:39,6365.0,266.0,235.0
16:42:39,6365.0,266.0,235.0
16:42:39,6464.0,266.0,236.0
16:42:39,6464.0,266.0,236.0
16:42:39,6464.0,266.0,236.0
16:42:39,6464.0,266.0,236.0
16:42:39,6217.0,265.0,235.0
16:42:39,6217.0,265.0,235.0
16:42:39,6217.0,265.0,235.0
16:42:39,6217.0,265.0,235.0
16:42:39,7086.0,265.0,234.0
16:42:39,7086.0,265.0,234.0
16:42:39,7086.0,265.0,234.0
16:42:39,7086.0,265.0,234.0
16:42:39,6589.0,266.0,235.0
16:42:39,6589.0,266.0,235.0
16:42:39,6589.0,266.0,235.0
16:42:39,6589.0,266.0,235.0
16:42:39,6382.0,266.0,236.0
16:42:39,6382.0,266.0,236.0
16:42:39,6382.0,266.0,236.0
16:42:39,6382.0,266.0,236.0
16:42:39,6288.0,264.0,234.0
16:42:39,6288.0,264.0,234.0
16:42:39,6288.0,264.0,234.0
16:42:39,6288.0,264.0,234.0
16:42:39,6397.0,266.0,236.0
16:42:40,6397.0,266.0,236.0
16:42:40,6397.0,266.0,236.0
16:42:40,6397.0,266.0,236.0
16:42:40,6455.0,264.0,235.0
16:42:40,6455.0,264.0,235.0
16:42:40,6455.0,264.0,235.0
16:42:40,6455.0,264.0,235.0
16:42:40,6600.0,265.0,235.0
16:42:40,6600.0,265.0,235.0
16:42:40,6600.0,265.0,235.0
16:42:40,6600.0,265.0,235.0
16:42:40,6624.0,265.0,234.0
16:42:40,6624.0,265.0,234.0
16:42:40,6624.0,265.0,234.0
16:42:40,6624.0,265.0,234.0
16:42:40,6647.0,266.0,234.0
16:42:40,6647.0,266.0,234.0
16:42:40,6647.0,266.0,234.0
16:42:40,6647.0,266.0,234.0
16:42:40,6707.0,266.0,234.0
16:42:40,6707.0,266.0,234.0
16:42:40,6707.0,266.0,234.0
16:42:40,6707.0,266.0,234.0
16:42:40,6654.0,264.0,235.0
16:42:40,6654.0,264.0,235.0
16:42:40,6654.0,264.0,235.0
16:42:40,6654.0,264.0,235.0
16:42:40,6833.0,266.0,235.0
16:42:40,6833.0,266.0,235.0
16:42:40,6833.0,266.0,235.0
16:42:40,6833.0,266.0,235.0
16:42:40,6724.0,264.0,234.0
16:42:40,6724.0,264.0,234.0
16:42:40,6724.0,264.0,234.0
16:42:40,6724.0,264.0,234.0
16:42:40,6876.0,263.0,236.0
16:42:40,6876.0,263.0,236.0
16:42:40,6876.0,263.0,236.0
16:42:40,6876.0,263.0,236.0
16:42:40,6854.0,265.0,236.0
16:42:40,6854.0,265.0,236.0
16:42:40,6854.0,265.0,236.0
16:42:40,6854.0,265.0,236.0
16:42:40,6694.0,265.0,235.0
16:42:40,6694.0,265.0,235.0
16:42:40,6694.0,265.0,235.0
16:42:40,6694.0,265.0,235.0
16:42:40,6521.0,264.0,234.0
16:42:40,6521.0,264.0,234.0
16:42:40,6521.0,264.0,234.0
16:42:40,6521.0,264.0,234.0
16:42:40,6484.0,265.0,236.0
16:42:40,6484.0,265.0,236.0
16:42:40,6484.0,265.0,236.0
16:42:40,6484.0,265.0,236.0
16:42:40,6518.0,265.0,235.0
16:42:40,6518.0,265.0,235.0
16:42:40,6518.0,265.0,235.0
16:42:40,6518.0,265.0,235.0
16:42:40,6473.0,264.0,235.0
16:42:40,6473.0,264.0,235.0
16:42:40,6473.0,264.0,235.0
16:42:40,6473.0,264.0,235.0
16:42:40,6511.0,266.0,236.0
16:42:40,6511.0,266.0,236.0
16:42:40,6511.0,266.0,236.0
16:42:40,6511.0,266.0,236.0
16:42:40,6547.0,265.0,236.0
16:42:40,6547.0,265.0,236.0
16:42:40,6547.0,265.0,236.0
16:42:40,6547.0,265.0,236.0
16:42:40,6631.0,264.0,236.0
16:42:40,6631.0,264.0,236.0
16:42:40,6631.0,264.0,236.0
16:42:40,6631.0,264.0,236.0
16:42:40,6534.0,265.0,236.0
16:42:40,6534.0,265.0,236.0
16:42:40,6534.0,265.0,236.0
16:42:40,6534.0,265.0,236.0
16:42:40,6589.0,266.0,236.0
16:42:40,6589.0,266.0,236.0
16:42:40,6589.0,266.0,236.0
16:42:40,6589.0,266.0,236.0
16:42:40,6585.0,266.0,235.0
16:42:40,6585.0,266.0,235.0
16:42:40,6585.0,266.0,235.0
16:42:40,6585.0,266.0,235.0
16:42:40,6646.0,264.0,236.0
16:42:40,6646.0,264.0,236.0
16:42:40,6646.0,264.0,236.0
16:42:40,6646.0,264.0,236.0
16:42:40,6651.0,266.0,236.0
16:42:40,6651.0,266.0,236.0
16:42:40,6651.0,266.0,236.0
16:42:40,6651.0,266.0,236.0
16:42:40,6592.0,266.0,236.0
16:42:40,6592.0,266.0,236.0
16:42:40,6592.0,266.0,236.0
16:42:40,6592.0,266.0,236.0
16:42:40,6547.0,266.0,237.0
16:42:40,6547.0,266.0,237.0
16:42:40,6547.0,266.0,237.0
16:42:40,6547.0,266.0,237.0
16:42:40,6386.0,265.0,236.0
16:42:40,6386.0,265.0,236.0
16:42:40,6386.0,265.0,236.0
16:42:40,6386.0,265.0,236.0
16:42:40,6584.0,266.0,236.0
16:42:40,6584.0,266.0,236.0
16:42:40,6584.0,266.0,236.0
16:42:40,6584.0,266.0,236.0
16:42:40,6477.0,266.0,237.0
16:42:40,6477.0,266.0,237.0
16:42:40,6477.0,266.0,237.0
16:42:40,6477.0,266.0,237.0
16:42:40,6466.0,267.0,237.0
16:42:40,6466.0,267.0,237.0
16:42:40,6466.0,267.0,237.0
16:42:40,6466.0,267.0,237.0
16:42:40,6570.0,266.0,236.0
16:42:40,6570.0,266.0,236.0
16:42:40,6570.0,266.0,236.0
16:42:40,6570.0,266.0,236.0
16:42:40,6495.0,267.0,237.0
16:42:40,6495.0,267.0,237.0
16:42:40,6495.0,267.0,237.0
16:42:40,6495.0,267.0,237.0
16:42:40,6377.0,266.0,237.0
16:42:40,6377.0,266.0,237.0
16:42:40,6377.0,266.0,237.0
16:42:40,6377.0,266.0,237.0
16:42:40,6658.0,266.0,237.0
16:42:40,6658.0,266.0,237.0
16:42:40,6658.0,266.0,237.0
16:42:40,6658.0,266.0,237.0
16:42:40,7030.0,268.0,237.0
16:42:40,7030.0,268.0,237.0
16:42:40,7030.0,268.0,237.0
16:42:40,7030.0,268.0,237.0
16:42:40,6844.0,266.0,238.0
16:42:40,6844.0,266.0,238.0
16:42:40,6844.0,266.0,238.0
16:42:40,6844.0,266.0,238.0
16:42:40,6803.0,266.0,236.0
16:42:40,6803.0,266.0,236.0
16:42:40,6803.0,266.0,236.0
16:42:40,6803.0,266.0,236.0
16:42:40,6880.0,267.0,237.0
16:42:40,6880.0,267.0,237.0
16:42:40,6880.0,267.0,237.0
16:42:40,6880.0,267.0,237.0
16:42:40,6806.0,266.0,237.0
16:42:40,6806.0,266.0,237.0
16:42:40,6806.0,266.0,237.0
16:42:40,6806.0,266.0,237.0
16:42:40,6803.0,266.0,236.0
16:42:40,6803.0,266.0,236.0
16:42:40,6803.0,266.0,236.0
16:42:40,6803.0,266.0,236.0
16:42:40,6928.0,267.0,238.0
16:42:40,6928.0,267.0,238.0
16:42:40,6928.0,267.0,238.0
16:42:40,6928.0,267.0,238.0
16:42:40,6784.0,268.0,237.0
16:42:40,6784.0,268.0,237.0
16:42:40,6784.0,268.0,237.0
16:42:40,6784.0,268.0,237.0
16:42:40,7006.0,266.0,238.0
16:42:40,7006.0,266.0,238.0
16:42:40,7006.0,266.0,238.0
16:42:40,7006.0,266.0,238.0
16:42:40,7624.0,267.0,237.0
16:42:40,7624.0,267.0,237.0
16:42:40,7624.0,267.0,237.0
16:42:40,7624.0,267.0,237.0
16:42:40,7859.0,267.0,238.0
16:42:40,7859.0,267.0,238.0
16:42:40,7859.0,267.0,238.0
16:42:40,7859.0,267.0,238.0
16:42:40,6958.0,267.0,236.0
16:42:40,6958.0,267.0,236.0
16:42:40,6958.0,267.0,236.0
16:42:40,6958.0,267.0,236.0
16:42:40,6746.0,268.0,238.0
16:42:40,6746.0,268.0,238.0
16:42:40,6746.0,268.0,238.0
16:42:40,6746.0,268.0,238.0
16:42:40,6298.0,268.0,238.0
16:42:40,6298.0,268.0,238.0
16:42:40,6298.0,268.0,238.0
16:42:40,6298.0,268.0,238.0
16:42:40,6369.0,266.0,239.0
16:42:40,6369.0,266.0,239.0
16:42:40,6369.0,266.0,239.0
16:42:40,6369.0,266.0,239.0
16:42:40,6181.0,268.0,238.0
16:42:40,6181.0,268.0,238.0
16:42:40,6181.0,268.0,238.0
16:42:40,6181.0,268.0,238.0
16:42:40,6094.0,268.0,238.0
16:42:40,6094.0,268.0,238.0
16:42:41,6094.0,268.0,238.0
16:42:41,6094.0,268.0,238.0
16:42:41,6064.0,268.0,239.0
16:42:41,6064.0,268.0,239.0
16:42:41,6064.0,268.0,239.0
16:42:41,6064.0,268.0,239.0
16:42:41,6234.0,267.0,237.0
16:42:41,6234.0,267.0,237.0
16:42:41,6234.0,267.0,237.0
16:42:41,6234.0,267.0,237.0
16:42:41,6522.0,268.0,239.0
16:42:41,6522.0,268.0,239.0
16:42:41,6522.0,268.0,239.0
16:42:41,6522.0,268.0,239.0
16:42:41,6705.0,268.0,238.0
16:42:41,6705.0,268.0,238.0
16:42:41,6705.0,268.0,238.0
16:42:41,6705.0,268.0,238.0
16:42:41,6877.0,267.0,238.0
16:42:41,6877.0,267.0,238.0
16:42:41,6877.0,267.0,238.0
16:42:41,6877.0,267.0,238.0
16:42:41,6793.0,269.0,239.0
16:42:41,6793.0,269.0,239.0
16:42:41,6793.0,269.0,239.0
16:42:41,6793.0,269.0,239.0
16:42:41,6618.0,268.0,239.0
16:42:41,6618.0,268.0,239.0
16:42:41,6618.0,268.0,239.0
16:42:41,6618.0,268.0,239.0
16:42:41,6692.0,267.0,238.0
16:42:41,6692.0,267.0,238.0
16:42:41,6692.0,267.0,238.0
16:42:41,6692.0,267.0,238.0
16:42:41,6602.0,268.0,238.0
16:42:41,6602.0,268.0,238.0
16:42:41,6602.0,268.0,238.0
16:42:41,6602.0,268.0,238.0
16:42:41,6502.0,267.0,238.0
16:42:41,6502.0,267.0,238.0
16:42:41,6502.0,267.0,238.0
16:42:41,6502.0,267.0,238.0
16:42:41,6230.0,267.0,238.0
16:42:41,6230.0,267.0,238.0
16:42:41,6230.0,267.0,238.0
16:42:41,6230.0,267.0,238.0
16:42:41,6258.0,268.0,237.0
16:42:41,6258.0,268.0,237.0
16:42:41,6258.0,268.0,237.0
16:42:41,6258.0,268.0,237.0
16:42:41,6346.0,268.0,238.0
16:42:41,6346.0,268.0,238.0
16:42:41,6346.0,268.0,238.0
16:42:41,6346.0,268.0,238.0
16:42:41,6164.0,268.0,237.0
16:42:41,6164.0,268.0,237.0
16:42:41,6164.0,268.0,237.0
16:42:41,6164.0,268.0,237.0
16:42:41,6180.0,268.0,237.0
16:42:41,6180.0,268.0,237.0
16:42:41,6180.0,268.0,237.0
16:42:41,6180.0,268.0,237.0
16:42:41,6180.0,268.0,237.0
16:42:41,6180.0,268.0,237.0
16:42:41,6180.0,268.0,237.0
16:42:41,6180.0,268.0,237.0
16:42:41,6406.0,267.0,236.0
16:42:41,6406.0,267.0,236.0
16:42:41,6406.0,267.0,236.0
16:42:41,6406.0,267.0,236.0
16:42:41,6486.0,266.0,236.0
16:42:41,6486.0,266.0,236.0
16:42:41,6486.0,266.0,236.0
16:42:41,6486.0,266.0,236.0
16:42:41,6393.0,267.0,237.0
16:42:41,6393.0,267.0,237.0
16:42:41,6393.0,267.0,237.0
16:42:41,6393.0,267.0,237.0
16:42:41,6499.0,267.0,236.0
16:42:41,6499.0,267.0,236.0
16:42:41,6499.0,267.0,236.0
16:42:41,6499.0,267.0,236.0
16:42:41,6486.0,266.0,237.0
16:42:41,6486.0,266.0,237.0
16:42:41,6486.0,266.0,237.0
16:42:41,6486.0,266.0,237.0
16:42:41,6499.0,267.0,236.0
16:42:41,6499.0,267.0,236.0
16:42:41,6499.0,267.0,236.0
16:42:41,6499.0,267.0,236.0
16:42:41,6584.0,265.0,235.0
16:42:41,6584.0,265.0,235.0
16:42:41,6584.0,265.0,235.0
16:42:41,6584.0,265.0,235.0
16:42:41,6598.0,266.0,236.0
16:42:41,6598.0,266.0,236.0
16:42:41,6598.0,266.0,236.0
16:42:41,6598.0,266.0,236.0
16:42:41,6479.0,267.0,235.0
16:42:41,6479.0,267.0,235.0
16:42:41,6479.0,267.0,235.0
16:42:41,6479.0,267.0,235.0
16:42:41,6420.0,266.0,237.0
16:42:41,6420.0,266.0,237.0
16:42:41,6420.0,266.0,237.0
16:42:41,6420.0,266.0,237.0
16:42:41,6421.0,265.0,236.0
16:42:41,6421.0,265.0,236.0
16:42:41,6421.0,265.0,236.0
16:42:41,6421.0,265.0,236.0
16:42:41,6460.0,266.0,235.0
16:42:41,6460.0,266.0,235.0
16:42:41,6460.0,266.0,235.0
16:42:41,6460.0,266.0,235.0
16:42:41,6446.0,265.0,236.0
16:42:41,6446.0,265.0,236.0
16:42:41,6446.0,265.0,236.0
16:42:41,6446.0,265.0,236.0
16:42:41,6475.0,265.0,235.0
16:42:41,6475.0,265.0,235.0
16:42:41,6475.0,265.0,235.0
16:42:41,6475.0,265.0,235.0
16:42:41,6340.0,265.0,234.0
16:42:41,6340.0,265.0,234.0
16:42:41,6340.0,265.0,234.0
16:42:41,6340.0,265.0,234.0
16:42:41,6356.0,266.0,235.0
16:42:41,6356.0,266.0,235.0
16:42:41,6356.0,266.0,235.0
16:42:41,6356.0,266.0,235.0
16:42:41,6487.0,265.0,235.0
16:42:41,6487.0,265.0,235.0
16:42:41,6487.0,265.0,235.0
16:42:41,6487.0,265.0,235.0
16:42:41,6401.0,265.0,236.0
16:42:41,6401.0,265.0,236.0
16:42:41,6401.0,265.0,236.0
16:42:41,6401.0,265.0,236.0
16:42:41,6241.0,266.0,234.0
16:42:41,6241.0,266.0,234.0
16:42:41,6241.0,266.0,234.0
16:42:41,6241.0,266.0,234.0
16:42:41,6390.0,264.0,235.0
16:42:41,6390.0,264.0,235.0
16:42:41,6390.0,264.0,235.0
16:42:41,6390.0,264.0,235.0
16:42:41,6669.0,264.0,235.0
16:42:41,6669.0,264.0,235.0
16:42:41,6669.0,264.0,235.0
16:42:41,6669.0,264.0,235.0
16:42:41,7142.0,266.0,234.0
16:42:41,7142.0,266.0,234.0
16:42:41,7142.0,266.0,234.0
16:42:41,7142.0,266.0,234.0
16:42:41,5946.0,264.0,236.0
16:42:41,5946.0,264.0,236.0
16:42:41,5946.0,264.0,236.0
16:42:41,5946.0,264.0,236.0
16:42:41,5952.0,265.0,235.0
16:42:41,5952.0,265.0,235.0
16:42:41,5952.0,265.0,235.0
16:42:41,5952.0,265.0,235.0
16:42:41,6055.0,264.0,234.0
16:42:41,6055.0,264.0,234.0
16:42:41,6055.0,264.0,234.0
16:42:41,6055.0,264.0,234.0
16:42:41,6120.0,265.0,235.0
16:42:41,6120.0,265.0,235.0
16:42:41,6120.0,265.0,235.0
16:42:41,6120.0,265.0,235.0
16:42:41,6091.0,264.0,235.0
16:42:41,6091.0,264.0,235.0
16:42:41,6091.0,264.0,235.0
16:42:41,6091.0,264.0,235.0
16:42:41,6210.0,264.0,236.0
16:42:41,6210.0,264.0,236.0
16:42:41,6210.0,264.0,236.0
16:42:41,6210.0,264.0,236.0
16:42:41,6221.0,265.0,234.0
16:42:41,6221.0,265.0,234.0
16:42:41,6221.0,265.0,234.0
16:42:41,6221.0,265.0,234.0
16:42:41,6004.0,264.0,235.0
16:42:41,6004.0,264.0,235.0
16:42:41,6004.0,264.0,235.0
16:42:41,6004.0,264.0,235.0
16:42:41,6099.0,264.0,235.0
16:42:41,6099.0,264.0,235.0
16:42:41,6099.0,264.0,235.0
16:42:41,6099.0,264.0,235.0
16:42:41,6215.0,264.0,235.0
16:42:41,6215.0,264.0,235.0
16:42:41,6215.0,264.0,235.0
16:42:41,6215.0,264.0,235.0
16:42:41,6186.0,265.0,236.0
16:42:41,6186.0,265.0,236.0
16:42:41,6186.0,265.0,236.0
16:42:41,6186.0,265.0,236.0
16:42:41,6366.0,265.0,235.0
16:42:41,6366.0,265.0,235.0
16:42:41,6366.0,265.0,235.0
16:42:42,6366.0,265.0,235.0
16:42:42,6222.0,264.0,236.0
16:42:42,6222.0,264.0,236.0
16:42:42,6222.0,264.0,236.0
16:42:42,6222.0,264.0,236.0
16:42:42,6014.0,265.0,235.0
16:42:42,6014.0,265.0,235.0
16:42:42,6014.0,265.0,235.0
16:42:42,6014.0,265.0,235.0
16:42:42,6032.0,265.0,236.0
16:42:42,6032.0,265.0,236.0
16:42:42,6032.0,265.0,236.0
16:42:42,6032.0,265.0,236.0
16:42:42,6053.0,265.0,236.0
16:42:42,6053.0,265.0,236.0
16:42:42,6053.0,265.0,236.0
16:42:42,6053.0,265.0,236.0
16:42:42,5918.0,264.0,235.0
16:42:42,5918.0,264.0,235.0
16:42:42,5918.0,264.0,235.0
16:42:42,5918.0,264.0,235.0
16:42:42,5767.0,265.0,237.0
16:42:42,5767.0,265.0,237.0
16:42:42,5767.0,265.0,237.0
16:42:42,5767.0,265.0,237.0
16:42:42,5829.0,266.0,237.0
16:42:42,5829.0,266.0,237.0
16:42:42,5829.0,266.0,237.0
16:42:42,5829.0,266.0,237.0
16:42:42,5857.0,266.0,236.0
16:42:42,5857.0,266.0,236.0
16:42:42,5857.0,266.0,236.0
16:42:42,5857.0,266.0,236.0
16:42:42,5928.0,266.0,237.0
16:42:42,5928.0,266.0,237.0
16:42:42,5928.0,266.0,237.0
16:42:42,5928.0,266.0,237.0
16:42:42,6049.0,265.0,237.0
16:42:42,6049.0,265.0,237.0
16:42:42,6049.0,265.0,237.0
16:42:42,6049.0,265.0,237.0
16:42:42,6129.0,266.0,235.0
16:42:42,6129.0,266.0,235.0
16:42:42,6129.0,266.0,235.0
16:42:42,6129.0,266.0,235.0
16:42:42,6255.0,266.0,236.0
16:42:42,6255.0,266.0,236.0
16:42:42,6255.0,266.0,236.0
16:42:42,6255.0,266.0,236.0
16:42:42,6015.0,265.0,237.0
16:42:42,6015.0,265.0,237.0
16:42:42,6015.0,265.0,237.0
16:42:42,6015.0,265.0,237.0
16:42:42,6081.0,267.0,237.0
16:42:42,6081.0,267.0,237.0
16:42:42,6081.0,267.0,237.0
16:42:42,6081.0,267.0,237.0
16:42:42,6012.0,266.0,236.0
16:42:42,6012.0,266.0,236.0
16:42:42,6012.0,266.0,236.0
16:42:42,6012.0,266.0,236.0
16:42:42,5878.0,266.0,237.0
16:42:42,5878.0,266.0,237.0
16:42:42,5878.0,266.0,237.0
16:42:42,5878.0,266.0,237.0
16:42:42,5829.0,268.0,237.0
16:42:42,5829.0,268.0,237.0
16:42:42,5829.0,268.0,237.0
16:42:42,5829.0,268.0,237.0
16:42:42,6096.0,267.0,237.0
16:42:42,6096.0,267.0,237.0
16:42:42,6096.0,267.0,237.0
16:42:42,6096.0,267.0,237.0
16:42:42,6004.0,265.0,237.0
16:42:42,6004.0,265.0,237.0
16:42:42,6004.0,265.0,237.0
16:42:42,6004.0,265.0,237.0
16:42:42,6136.0,267.0,237.0
16:42:42,6136.0,267.0,237.0
16:42:42,6136.0,267.0,237.0
16:42:42,6136.0,267.0,237.0
16:42:42,5985.0,266.0,238.0
16:42:42,5985.0,266.0,238.0
16:42:42,5985.0,266.0,238.0
16:42:42,5985.0,266.0,238.0
16:42:42,5941.0,267.0,237.0
16:42:42,5941.0,267.0,237.0
16:42:42,5941.0,267.0,237.0
16:42:42,5941.0,267.0,237.0
16:42:42,5994.0,267.0,237.0
16:42:42,5994.0,267.0,237.0
16:42:42,5994.0,267.0,237.0
16:42:42,5994.0,267.0,237.0
16:42:42,6012.0,266.0,239.0
16:42:42,6012.0,266.0,239.0
16:42:42,6012.0,266.0,239.0
16:42:42,6012.0,266.0,239.0
16:42:42,6102.0,267.0,238.0
16:42:42,6102.0,267.0,238.0
16:42:42,6102.0,267.0,238.0
16:42:42,6102.0,267.0,238.0
16:42:42,6131.0,267.0,237.0
16:42:42,6131.0,267.0,237.0
16:42:42,6131.0,267.0,237.0
16:42:42,6131.0,267.0,237.0
16:42:42,6086.0,267.0,238.0
16:42:42,6086.0,267.0,238.0
16:42:42,6086.0,267.0,238.0
16:42:42,6086.0,267.0,238.0
16:42:42,6153.0,267.0,238.0
16:42:42,6153.0,267.0,238.0
16:42:42,6153.0,267.0,238.0
16:42:42,6153.0,267.0,238.0
16:42:42,6022.0,267.0,237.0
16:42:42,6022.0,267.0,237.0
16:42:42,6022.0,267.0,237.0
16:42:42,6022.0,267.0,237.0
16:42:42,6119.0,267.0,238.0
16:42:42,6119.0,267.0,238.0
16:42:42,6119.0,267.0,238.0
16:42:42,6119.0,267.0,238.0
16:42:42,6152.0,267.0,238.0
16:42:42,6152.0,267.0,238.0
16:42:42,6152.0,267.0,238.0
16:42:42,6152.0,267.0,238.0
16:42:42,7513.0,266.0,238.0
16:42:42,7513.0,266.0,238.0
16:42:42,7513.0,266.0,238.0
16:42:42,7513.0,266.0,238.0
16:42:42,5888.0,268.0,238.0
16:42:42,5888.0,268.0,238.0
16:42:42,5888.0,268.0,238.0
16:42:42,5888.0,268.0,238.0
16:42:42,5840.0,268.0,238.0
16:42:42,5840.0,268.0,238.0
16:42:42,5840.0,268.0,238.0
16:42:42,5840.0,268.0,238.0
16:42:42,5942.0,267.0,238.0
16:42:42,5942.0,267.0,238.0
16:42:42,5942.0,267.0,238.0
16:42:42,5942.0,267.0,238.0
16:42:42,6139.0,268.0,239.0
16:42:42,6139.0,268.0,239.0
16:42:42,6139.0,268.0,239.0
16:42:42,6139.0,268.0,239.0
16:42:42,6104.0,268.0,238.0
16:42:42,6104.0,268.0,238.0
16:42:42,6104.0,268.0,238.0
16:42:42,6104.0,268.0,238.0
16:42:42,6051.0,267.0,239.0
16:42:42,6051.0,267.0,239.0
16:42:42,6051.0,267.0,239.0
16:42:42,6051.0,267.0,239.0
16:42:42,6262.0,268.0,239.0
16:42:42,6262.0,268.0,239.0
16:42:42,6262.0,268.0,239.0
16:42:42,6262.0,268.0,239.0
16:42:42,6244.0,269.0,237.0
16:42:42,6244.0,269.0,237.0
16:42:42,6244.0,269.0,237.0
16:42:42,6244.0,269.0,237.0
16:42:42,6214.0,267.0,239.0
16:42:42,6214.0,267.0,239.0
16:42:42,6214.0,267.0,239.0
16:42:42,6214.0,267.0,239.0
16:42:42,6445.0,268.0,237.0
16:42:42,6445.0,268.0,237.0
16:42:42,6445.0,268.0,237.0
16:42:42,6445.0,268.0,237.0
16:42:42,6459.0,267.0,238.0
16:42:42,6459.0,267.0,238.0
16:42:42,6459.0,267.0,238.0
16:42:42,6459.0,267.0,238.0
16:42:42,6308.0,267.0,237.0
16:42:42,6308.0,267.0,237.0
16:42:42,6308.0,267.0,237.0
16:42:42,6308.0,267.0,237.0
16:42:42,6500.0,267.0,237.0
16:42:42,6500.0,267.0,237.0
16:42:42,6500.0,267.0,237.0
16:42:42,6500.0,267.0,237.0
16:42:42,6359.0,268.0,239.0
16:42:42,6359.0,268.0,239.0
16:42:42,6359.0,268.0,239.0
16:42:42,6359.0,268.0,239.0
16:42:42,6369.0,268.0,238.0
16:42:42,6369.0,268.0,238.0
16:42:42,6369.0,268.0,238.0
16:42:42,6369.0,268.0,238.0
16:42:42,6229.0,267.0,238.0
16:42:42,6229.0,267.0,238.0
16:42:42,6229.0,267.0,238.0
16:42:42,6229.0,267.0,238.0
16:42:42,6335.0,269.0,237.0
16:42:42,6335.0,269.0,237.0
16:42:42,6335.0,269.0,237.0
16:42:42,6335.0,269.0,237.0
16:42:42,6500.0,267.0,237.0
16:42:42,6500.0,267.0,237.0
16:42:42,6500.0,267.0,237.0
16:42:42,6500.0,267.0,237.0
16:42:43,6192.0,266.0,236.0
16:42:43,6192.0,266.0,236.0
16:42:43,6192.0,266.0,236.0
16:42:43,6192.0,266.0,236.0
16:42:43,6372.0,268.0,237.0
16:42:43,6372.0,268.0,237.0
16:42:43,6372.0,268.0,237.0
16:42:43,6372.0,268.0,237.0
16:42:43,6434.0,266.0,237.0
16:42:43,6434.0,266.0,237.0
16:42:43,6434.0,266.0,237.0
16:42:43,6434.0,266.0,237.0
16:42:43,6275.0,267.0,236.0
16:42:43,6275.0,267.0,236.0
16:42:43,6275.0,267.0,236.0
16:42:43,6275.0,267.0,236.0
16:42:43,6355.0,267.0,236.0
16:42:43,6355.0,267.0,236.0
16:42:43,6355.0,267.0,236.0
16:42:43,6355.0,267.0,236.0
16:42:43,6444.0,266.0,236.0
16:42:43,6444.0,266.0,236.0
16:42:43,6444.0,266.0,236.0
16:42:43,6444.0,266.0,236.0
16:42:43,6376.0,266.0,236.0
16:42:43,6376.0,266.0,236.0
16:42:43,6376.0,266.0,236.0
16:42:43,6376.0,266.0,236.0
16:42:43,6354.0,266.0,234.0
16:42:43,6354.0,266.0,234.0
16:42:43,6354.0,266.0,234.0
16:42:43,6354.0,266.0,234.0
16:42:43,6351.0,267.0,236.0
16:42:43,6351.0,267.0,236.0
16:42:43,6351.0,267.0,236.0
16:42:43,6351.0,267.0,236.0
16:42:43,6413.0,266.0,235.0
16:42:43,6413.0,266.0,235.0
16:42:43,6413.0,266.0,235.0
16:42:43,6413.0,266.0,235.0
16:42:43,6304.0,265.0,236.0
16:42:43,6304.0,265.0,236.0
16:42:43,6304.0,265.0,236.0
16:42:43,6304.0,265.0,236.0
16:42:43,6425.0,266.0,236.0
16:42:43,6425.0,266.0,236.0
16:42:43,6425.0,266.0,236.0
16:42:43,6425.0,266.0,236.0
16:42:43,6526.0,265.0,235.0
16:42:43,6526.0,265.0,235.0
16:42:43,6526.0,265.0,235.0
16:42:43,6526.0,265.0,235.0
16:42:43,6386.0,264.0,236.0
16:42:43,6386.0,264.0,236.0
16:42:43,6386.0,264.0,236.0
16:42:43,6386.0,264.0,236.0
16:42:43,6436.0,266.0,235.0
16:42:43,6436.0,266.0,235.0
16:42:43,6436.0,266.0,235.0
16:42:43,6436.0,266.0,235.0
16:42:43,6433.0,265.0,235.0
16:42:43,6433.0,265.0,235.0
16:42:43,6433.0,265.0,235.0
16:42:43,6433.0,265.0,235.0
16:42:43,6427.0,265.0,235.0
16:42:43,6427.0,265.0,235.0
16:42:43,6427.0,265.0,235.0
16:42:43,6427.0,265.0,235.0
16:42:43,6495.0,265.0,234.0
16:42:43,6495.0,265.0,234.0
16:42:43,6495.0,265.0,234.0
16:42:43,6495.0,265.0,234.0
16:42:43,6676.0,266.0,236.0
16:42:43,6676.0,266.0,236.0
16:42:43,6676.0,266.0,236.0
16:42:43,6676.0,266.0,236.0
16:42:43,6437.0,265.0,236.0
16:42:43,6437.0,265.0,236.0
16:42:43,6437.0,265.0,236.0
16:42:43,6437.0,265.0,236.0
16:42:43,6604.0,265.0,235.0
16:42:43,6604.0,265.0,235.0
16:42:43,6604.0,265.0,235.0
16:42:43,6604.0,265.0,235.0
16:42:43,6631.0,264.0,235.0
16:42:43,6631.0,264.0,235.0
16:42:43,6631.0,264.0,235.0
16:42:43,6631.0,264.0,235.0
16:42:43,6541.0,265.0,234.0
16:42:43,6541.0,265.0,234.0
16:42:43,6541.0,265.0,234.0
16:42:43,6541.0,265.0,234.0
16:42:43,6550.0,265.0,235.0
16:42:43,6550.0,265.0,235.0
16:42:43,6550.0,265.0,235.0
16:42:43,6550.0,265.0,235.0
16:42:43,6568.0,265.0,235.0
16:42:43,6568.0,265.0,235.0
16:42:43,6568.0,265.0,235.0
16:42:43,6568.0,265.0,235.0
16:42:43,7955.0,264.0,234.0
16:42:43,7955.0,264.0,234.0
16:42:43,7955.0,264.0,234.0
16:42:43,7955.0,264.0,234.0
16:42:43,6210.0,264.0,234.0
16:42:43,6210.0,264.0,234.0
16:42:43,6210.0,264.0,234.0
16:42:43,6210.0,264.0,234.0
16:42:43,6425.0,265.0,235.0
16:42:43,6425.0,265.0,235.0
16:42:43,6425.0,265.0,235.0
16:42:43,6425.0,265.0,235.0
16:42:43,6605.0,266.0,235.0
16:42:43,6605.0,266.0,235.0
16:42:43,6605.0,266.0,235.0
16:42:43,6605.0,266.0,235.0
16:42:43,6701.0,265.0,234.0
16:42:43,6701.0,265.0,234.0
16:42:43,6701.0,265.0,234.0
16:42:43,6701.0,265.0,234.0
16:42:43,6549.0,265.0,236.0
16:42:43,6549.0,265.0,236.0
16:42:43,6549.0,265.0,236.0
16:42:43,6549.0,265.0,236.0
16:42:43,6505.0,264.0,235.0
16:42:43,6505.0,264.0,235.0
16:42:43,6505.0,264.0,235.0
16:42:43,6505.0,264.0,235.0
16:42:43,6513.0,265.0,236.0
16:42:43,6513.0,265.0,236.0
16:42:43,6513.0,265.0,236.0
16:42:43,6513.0,265.0,236.0
16:42:43,6610.0,266.0,235.0
16:42:43,6610.0,266.0,235.0
16:42:43,6610.0,266.0,235.0
16:42:43,6610.0,266.0,235.0
16:42:43,6811.0,265.0,236.0
16:42:43,6811.0,265.0,236.0
16:42:43,6811.0,265.0,236.0
16:42:43,6811.0,265.0,236.0
16:42:43,6616.0,266.0,236.0
16:42:43,6616.0,266.0,236.0
16:42:43,6616.0,266.0,236.0
16:42:43,6616.0,266.0,236.0
16:42:43,6844.0,266.0,235.0
16:42:43,6844.0,266.0,235.0
16:42:43,6844.0,266.0,235.0
16:42:43,6844.0,266.0,235.0
16:42:43,6911.0,265.0,236.0
16:42:43,6911.0,265.0,236.0
16:42:43,6911.0,265.0,236.0
16:42:43,6911.0,265.0,236.0
16:42:43,6821.0,266.0,235.0
16:42:43,6821.0,266.0,235.0
16:42:43,6821.0,266.0,235.0
16:42:43,6821.0,266.0,235.0
16:42:43,6725.0,266.0,235.0
16:42:43,6725.0,266.0,235.0
16:42:43,6725.0,266.0,235.0
16:42:43,6725.0,266.0,235.0
16:42:43,6597.0,266.0,236.0
16:42:43,6597.0,266.0,236.0
16:42:43,6597.0,266.0,236.0
16:42:43,6597.0,266.0,236.0
16:42:43,6539.0,266.0,236.0
16:42:43,6539.0,266.0,236.0
16:42:43,6539.0,266.0,236.0
16:42:43,6539.0,266.0,236.0
16:42:43,6455.0,265.0,236.0
16:42:43,6455.0,265.0,236.0
16:42:43,6455.0,265.0,236.0
16:42:43,6455.0,265.0,236.0
16:42:43,6519.0,266.0,237.0
16:42:43,6519.0,266.0,237.0
16:42:43,6519.0,266.0,237.0
16:42:43,6519.0,266.0,237.0
16:42:43,6515.0,266.0,237.0
16:42:43,6515.0,266.0,237.0
16:42:43,6515.0,266.0,237.0
16:42:43,6515.0,266.0,237.0
16:42:43,6670.0,265.0,237.0
16:42:43,6670.0,265.0,237.0
16:42:43,6670.0,265.0,237.0
16:42:43,6670.0,265.0,237.0
16:42:43,6861.0,267.0,236.0
16:42:43,6861.0,267.0,236.0
16:42:43,6861.0,267.0,236.0
16:42:43,6861.0,267.0,236.0
16:42:43,6683.0,266.0,237.0
16:42:43,6683.0,266.0,237.0
16:42:43,6683.0,266.0,237.0
16:42:43,6683.0,266.0,237.0
16:42:43,6735.0,266.0,238.0
16:42:43,6735.0,266.0,238.0
16:42:43,6735.0,266.0,238.0
16:42:43,6735.0,266.0,238.0
16:42:43,6679.0,267.0,236.0
16:42:43,6679.0,267.0,236.0
16:42:43,6679.0,267.0,236.0
16:42:43,6679.0,267.0,236.0
16:42:43,6455.0,267.0,236.0
16:42:44,6455.0,267.0,236.0
16:42:44,6455.0,267.0,236.0
16:42:44,6455.0,267.0,236.0
16:42:44,6493.0,266.0,236.0
16:42:44,6493.0,266.0,236.0
16:42:44,6493.0,266.0,236.0
16:42:44,6493.0,266.0,236.0
16:42:44,6543.0,266.0,236.0
16:42:44,6543.0,266.0,236.0
16:42:44,6543.0,266.0,236.0
16:42:44,6543.0,266.0,236.0
16:42:44,6743.0,267.0,237.0
16:42:44,6743.0,267.0,237.0
16:42:44,6743.0,267.0,237.0
16:42:44,6743.0,267.0,237.0
16:42:44,6530.0,266.0,237.0
16:42:44,6530.0,266.0,237.0
16:42:44,6530.0,266.0,237.0
16:42:44,6530.0,266.0,237.0
16:42:44,6686.0,266.0,237.0
16:42:44,6686.0,266.0,237.0
16:42:44,6686.0,266.0,237.0
16:42:44,6686.0,266.0,237.0
16:42:44,6601.0,267.0,238.0
16:42:44,6601.0,267.0,238.0
16:42:44,6601.0,267.0,238.0
16:42:44,6601.0,267.0,238.0
16:42:44,6779.0,266.0,237.0
16:42:44,6779.0,266.0,237.0
16:42:44,6779.0,266.0,237.0
16:42:44,6779.0,266.0,237.0
16:42:44,6795.0,267.0,238.0
16:42:44,6795.0,267.0,238.0
16:42:44,6795.0,267.0,238.0
16:42:44,6795.0,267.0,238.0
16:42:44,6627.0,267.0,237.0
16:42:44,6627.0,267.0,237.0
16:42:44,6627.0,267.0,237.0
16:42:44,6627.0,267.0,237.0
16:42:44,6494.0,266.0,238.0
16:42:44,6494.0,266.0,238.0
16:42:44,6494.0,266.0,238.0
16:42:44,6494.0,266.0,238.0
16:42:44,6514.0,267.0,237.0
16:42:44,6514.0,267.0,237.0
16:42:44,6514.0,267.0,237.0
16:42:44,6514.0,267.0,237.0
16:42:44,6480.0,267.0,237.0
16:42:44,6480.0,267.0,237.0
16:42:44,6480.0,267.0,237.0
16:42:44,6480.0,267.0,237.0
16:42:44,6538.0,267.0,238.0
16:42:44,6538.0,267.0,238.0
16:42:44,6538.0,267.0,238.0
16:42:44,6538.0,267.0,238.0
16:42:44,6981.0,266.0,238.0
16:42:44,6981.0,266.0,238.0
16:42:44,6981.0,266.0,238.0
16:42:44,6981.0,266.0,238.0
16:42:44,8141.0,267.0,238.0
16:42:44,8141.0,267.0,238.0
16:42:44,8141.0,267.0,238.0
16:42:44,8141.0,267.0,238.0
16:42:44,6617.0,267.0,237.0
16:42:44,6617.0,267.0,237.0
16:42:44,6617.0,267.0,237.0
16:42:44,6617.0,267.0,237.0
16:42:44,6675.0,268.0,238.0
16:42:44,6675.0,268.0,238.0
16:42:44,6675.0,268.0,238.0
16:42:44,6675.0,268.0,238.0
16:42:44,6506.0,267.0,237.0
16:42:44,6506.0,267.0,237.0
16:42:44,6506.0,267.0,237.0
16:42:44,6506.0,267.0,237.0
16:42:44,6521.0,267.0,238.0
16:42:44,6521.0,267.0,238.0
16:42:44,6521.0,267.0,238.0
16:42:44,6521.0,267.0,238.0
16:42:44,6429.0,268.0,239.0
16:42:44,6429.0,268.0,239.0
16:42:44,6429.0,268.0,239.0
16:42:44,6429.0,268.0,239.0
16:42:44,6481.0,267.0,238.0
16:42:44,6481.0,267.0,238.0
16:42:44,6481.0,267.0,238.0
16:42:44,6481.0,267.0,238.0
16:42:44,6533.0,267.0,237.0
16:42:44,6533.0,267.0,237.0
16:42:44,6533.0,267.0,237.0
16:42:44,6533.0,267.0,237.0
16:42:44,6536.0,268.0,238.0
16:42:44,6536.0,268.0,238.0
16:42:44,6536.0,268.0,238.0
16:42:44,6536.0,268.0,238.0
16:42:44,6638.0,267.0,238.0
16:42:44,6638.0,267.0,238.0
16:42:44,6638.0,267.0,238.0
16:42:44,6638.0,267.0,238.0
16:42:44,6620.0,267.0,238.0
16:42:44,6620.0,267.0,238.0
16:42:44,6620.0,267.0,238.0
16:42:44,6620.0,267.0,238.0
16:42:44,6695.0,269.0,238.0
16:42:44,6695.0,269.0,238.0
16:42:44,6695.0,269.0,238.0
16:42:44,6695.0,269.0,238.0
16:42:44,6571.0,268.0,238.0
16:42:44,6571.0,268.0,238.0
16:42:44,6571.0,268.0,238.0
16:42:44,6571.0,268.0,238.0
16:42:44,6601.0,268.0,238.0
16:42:44,6601.0,268.0,238.0
16:42:44,6601.0,268.0,238.0
16:42:44,6601.0,268.0,238.0
16:42:44,6477.0,268.0,237.0
16:42:44,6477.0,268.0,237.0
16:42:44,6477.0,268.0,237.0
16:42:44,6477.0,268.0,237.0
16:42:44,6392.0,269.0,238.0
16:42:44,6392.0,269.0,238.0
16:42:44,6392.0,269.0,238.0
16:42:44,6392.0,269.0,238.0
16:42:44,6461.0,268.0,238.0
16:42:44,6461.0,268.0,238.0
16:42:44,6461.0,268.0,238.0
16:42:44,6461.0,268.0,238.0
16:42:44,6344.0,268.0,237.0
16:42:44,6344.0,268.0,237.0
16:42:44,6344.0,268.0,237.0
16:42:44,6344.0,268.0,237.0
16:42:44,6539.0,267.0,238.0
16:42:44,6539.0,267.0,238.0
16:42:44,6539.0,267.0,238.0
16:42:44,6539.0,267.0,238.0
16:42:44,6626.0,266.0,238.0
16:42:44,6626.0,266.0,238.0
16:42:44,6626.0,266.0,238.0
16:42:44,6626.0,266.0,238.0
16:42:44,6594.0,267.0,237.0
16:42:44,6594.0,267.0,237.0
16:42:44,6594.0,267.0,237.0
16:42:44,6594.0,267.0,237.0
16:42:44,6514.0,268.0,238.0
16:42:44,6514.0,268.0,238.0
16:42:44,6514.0,268.0,238.0
16:42:44,6514.0,268.0,238.0
16:42:44,6449.0,267.0,237.0
16:42:44,6449.0,267.0,237.0
16:42:44,6449.0,267.0,237.0
16:42:44,6449.0,267.0,237.0
16:42:44,6208.0,267.0,236.0
16:42:44,6208.0,267.0,236.0
16:42:44,6208.0,267.0,236.0
16:42:44,6208.0,267.0,236.0
16:42:44,6186.0,266.0,237.0
16:42:44,6186.0,266.0,237.0
16:42:44,6186.0,266.0,237.0
16:42:44,6186.0,266.0,237.0
16:42:44,6116.0,266.0,236.0
16:42:44,6116.0,266.0,236.0
16:42:44,6116.0,266.0,236.0
16:42:44,6116.0,266.0,236.0
16:42:44,6273.0,266.0,235.0
16:42:44,6273.0,266.0,235.0
16:42:44,6273.0,266.0,235.0
16:42:44,6273.0,266.0,235.0
16:42:44,6214.0,267.0,237.0
16:42:44,6214.0,267.0,237.0
16:42:44,6214.0,267.0,237.0
16:42:44,6214.0,267.0,237.0
16:42:44,6299.0,266.0,235.0
16:42:44,6299.0,266.0,235.0
16:42:44,6299.0,266.0,235.0
16:42:44,6299.0,266.0,235.0
16:42:44,6532.0,266.0,236.0
16:42:44,6532.0,266.0,236.0
16:42:44,6532.0,266.0,236.0
16:42:44,6532.0,266.0,236.0
16:42:44,6529.0,266.0,235.0
16:42:44,6529.0,266.0,235.0
16:42:44,6529.0,266.0,235.0
16:42:44,6529.0,266.0,235.0
16:42:44,6364.0,266.0,236.0
16:42:44,6364.0,266.0,236.0
16:42:44,6364.0,266.0,236.0
16:42:44,6364.0,266.0,236.0
16:42:44,6328.0,266.0,236.0
16:42:44,6328.0,266.0,236.0
16:42:44,6328.0,266.0,236.0
16:42:44,6328.0,266.0,236.0
16:42:44,6208.0,265.0,235.0
16:42:44,6208.0,265.0,235.0
16:42:44,6208.0,265.0,235.0
16:42:44,6208.0,265.0,235.0
16:42:44,6232.0,266.0,235.0
16:42:44,6232.0,266.0,235.0
16:42:44,6232.0,266.0,235.0
16:42:44,6232.0,266.0,235.0
16:42:44,6013.0,265.0,236.0
16:42:45,6013.0,265.0,236.0
16:42:45,6013.0,265.0,236.0
16:42:45,6013.0,265.0,236.0
16:42:45,6186.0,265.0,235.0
16:42:45,6186.0,265.0,235.0
16:42:45,6186.0,265.0,235.0
16:42:45,6186.0,265.0,235.0
16:42:45,6268.0,267.0,236.0
16:42:45,6268.0,267.0,236.0
16:42:45,6268.0,267.0,236.0
16:42:45,6268.0,267.0,236.0
16:42:45,6208.0,265.0,235.0
16:42:45,6208.0,265.0,235.0
16:42:45,6208.0,265.0,235.0
16:42:45,6208.0,265.0,235.0
16:42:45,6276.0,265.0,235.0
16:42:45,6276.0,265.0,235.0
16:42:45,6276.0,265.0,235.0
16:42:45,6276.0,265.0,235.0
16:42:45,6571.0,266.0,234.0
16:42:45,6571.0,266.0,234.0
16:42:45,6571.0,266.0,234.0
16:42:45,6571.0,266.0,234.0
16:42:45,6332.0,265.0,235.0
16:42:45,6332.0,265.0,235.0
16:42:45,6332.0,265.0,235.0
16:42:45,6332.0,265.0,235.0
16:42:45,6333.0,265.0,235.0
16:42:45,6333.0,265.0,235.0
16:42:45,6333.0,265.0,235.0
16:42:45,6333.0,265.0,235.0
16:42:45,6124.0,264.0,235.0
16:42:45,6124.0,264.0,235.0
16:42:45,6124.0,264.0,235.0
16:42:45,6124.0,264.0,235.0
16:42:45,6116.0,265.0,236.0
16:42:45,6116.0,265.0,236.0
16:42:45,6116.0,265.0,236.0
16:42:45,6116.0,265.0,236.0
16:42:45,6081.0,265.0,235.0
16:42:45,6081.0,265.0,235.0
16:42:45,6081.0,265.0,235.0
16:42:45,6081.0,265.0,235.0
16:42:45,6833.0,264.0,235.0
16:42:45,6833.0,264.0,235.0
16:42:45,6833.0,264.0,235.0
16:42:45,6833.0,264.0,235.0
16:42:45,6394.0,264.0,234.0
16:42:45,6394.0,264.0,234.0
16:42:45,6394.0,264.0,234.0
16:42:45,6394.0,264.0,234.0
16:42:45,5877.0,264.0,235.0
16:42:45,5877.0,264.0,235.0
16:42:45,5877.0,264.0,235.0
16:42:45,5877.0,264.0,235.0
16:42:45,5850.0,264.0,233.0
16:42:45,5850.0,264.0,233.0
16:42:45,5850.0,264.0,233.0
16:42:45,5850.0,264.0,233.0
16:42:45,5785.0,265.0,234.0
16:42:45,5785.0,265.0,234.0
16:42:45,5785.0,265.0,234.0
16:42:45,5785.0,265.0,234.0
16:42:45,6057.0,265.0,235.0
16:42:45,6057.0,265.0,235.0
16:42:45,6057.0,265.0,235.0
16:42:45,6057.0,265.0,235.0
16:42:45,6138.0,265.0,234.0
16:42:45,6138.0,265.0,234.0
16:42:45,6138.0,265.0,234.0
16:42:45,6138.0,265.0,234.0
16:42:45,6111.0,265.0,235.0
16:42:45,6111.0,265.0,235.0
16:42:45,6111.0,265.0,235.0
16:42:45,6111.0,265.0,235.0
16:42:45,6313.0,265.0,235.0
16:42:45,6313.0,265.0,235.0
16:42:45,6313.0,265.0,235.0
16:42:45,6313.0,265.0,235.0
16:42:45,6300.0,265.0,236.0
16:42:45,6300.0,265.0,236.0
16:42:45,6300.0,265.0,236.0
16:42:45,6300.0,265.0,236.0
16:42:45,6067.0,264.0,235.0
16:42:45,6067.0,264.0,235.0
16:42:45,6067.0,264.0,235.0
16:42:45,6067.0,264.0,235.0
16:42:45,6244.0,265.0,235.0
16:42:45,6244.0,265.0,235.0
16:42:45,6244.0,265.0,235.0
16:42:45,6244.0,265.0,235.0
16:42:45,6080.0,264.0,236.0
16:42:45,6080.0,264.0,236.0
16:42:45,6080.0,264.0,236.0
16:42:45,6080.0,264.0,236.0
16:42:45,6105.0,265.0,236.0
16:42:45,6105.0,265.0,236.0
16:42:45,6105.0,265.0,236.0
16:42:45,6105.0,265.0,236.0
16:42:45,6205.0,265.0,235.0
16:42:45,6205.0,265.0,235.0
16:42:45,6205.0,265.0,235.0
16:42:45,6205.0,265.0,235.0
16:42:45,6086.0,265.0,235.0
16:42:45,6086.0,265.0,235.0
16:42:45,6086.0,265.0,235.0
16:42:45,6086.0,265.0,235.0
16:42:45,5944.0,265.0,237.0
16:42:45,5944.0,265.0,237.0
16:42:45,5944.0,265.0,237.0
16:42:45,5944.0,265.0,237.0
16:42:45,5939.0,265.0,235.0
16:42:45,5939.0,265.0,235.0
16:42:45,5939.0,265.0,235.0
16:42:45,5939.0,265.0,235.0
16:42:45,6037.0,265.0,237.0
16:42:45,6037.0,265.0,237.0
16:42:45,6037.0,265.0,237.0
16:42:45,6037.0,265.0,237.0
16:42:45,6063.0,265.0,237.0
16:42:45,6063.0,265.0,237.0
16:42:45,6063.0,265.0,237.0
16:42:45,6063.0,265.0,237.0
16:42:45,6171.0,266.0,236.0
16:42:45,6171.0,266.0,236.0
16:42:45,6171.0,266.0,236.0
16:42:45,6171.0,266.0,236.0
16:42:45,5925.0,265.0,237.0
16:42:45,5925.0,265.0,237.0
16:42:45,5925.0,265.0,237.0
16:42:45,5925.0,265.0,237.0
16:42:45,6009.0,266.0,237.0
16:42:45,6009.0,266.0,237.0
16:42:45,6009.0,266.0,237.0
16:42:45,6009.0,266.0,237.0
16:42:45,5972.0,267.0,236.0
16:42:45,5972.0,267.0,236.0
16:42:45,5972.0,267.0,236.0
16:42:45,5972.0,267.0,236.0
16:42:45,6024.0,266.0,238.0
16:42:45,6024.0,266.0,238.0
16:42:45,6024.0,266.0,238.0
16:42:45,6024.0,266.0,238.0
16:42:45,6149.0,266.0,238.0
16:42:45,6149.0,266.0,238.0
16:42:45,6149.0,266.0,238.0
16:42:45,6149.0,266.0,238.0
16:42:45,6018.0,267.0,236.0
16:42:45,6018.0,267.0,236.0
16:42:45,6018.0,267.0,236.0
16:42:45,6018.0,267.0,236.0
16:42:45,5793.0,265.0,237.0
16:42:45,5793.0,265.0,237.0
16:42:45,5793.0,265.0,237.0
16:42:45,5793.0,265.0,237.0
16:42:45,5833.0,267.0,237.0
16:42:45,5833.0,267.0,237.0
16:42:45,5833.0,267.0,237.0
16:42:45,5833.0,267.0,237.0
16:42:45,5819.0,266.0,237.0
16:42:45,5819.0,266.0,237.0
16:42:45,5819.0,266.0,237.0
16:42:45,5819.0,266.0,237.0
16:42:45,5800.0,267.0,236.0
16:42:45,5800.0,267.0,236.0
16:42:45,5800.0,267.0,236.0
16:42:45,5800.0,267.0,236.0
16:42:45,5835.0,268.0,237.0
16:42:45,5835.0,268.0,237.0
16:42:45,5835.0,268.0,237.0
16:42:45,5835.0,268.0,237.0
16:42:45,5777.0,266.0,237.0
16:42:45,5777.0,266.0,237.0
16:42:45,5777.0,266.0,237.0
16:42:45,5777.0,266.0,237.0
16:42:45,6179.0,267.0,237.0
16:42:45,6179.0,267.0,237.0
16:42:45,6179.0,267.0,237.0
16:42:45,6179.0,267.0,237.0
16:42:45,6144.0,267.0,237.0
16:42:45,6144.0,267.0,237.0
16:42:45,6144.0,267.0,237.0
16:42:45,6144.0,267.0,237.0
16:42:45,6110.0,266.0,238.0
16:42:45,6110.0,266.0,238.0
16:42:45,6110.0,266.0,238.0
16:42:45,6110.0,266.0,238.0
16:42:45,6227.0,268.0,238.0
16:42:45,6227.0,268.0,238.0
16:42:45,6227.0,268.0,238.0
16:42:45,6227.0,268.0,238.0
16:42:45,5992.0,266.0,237.0
16:42:45,5992.0,266.0,237.0
16:42:45,5992.0,266.0,237.0
16:42:45,5992.0,266.0,237.0
16:42:45,5885.0,267.0,238.0
16:42:45,5885.0,267.0,238.0
16:42:45,5885.0,267.0,238.0
16:42:45,5885.0,267.0,238.0
16:42:45,5836.0,268.0,236.0
16:42:45,5836.0,268.0,236.0
16:42:46,5836.0,268.0,236.0
16:42:46,5836.0,268.0,236.0
16:42:46,5842.0,268.0,238.0
16:42:46,5842.0,268.0,238.0
16:42:46,5842.0,268.0,238.0
16:42:46,5842.0,268.0,238.0
16:42:46,7534.0,267.0,238.0
16:42:46,7534.0,267.0,238.0
16:42:46,7534.0,267.0,238.0
16:42:46,7534.0,267.0,238.0
16:42:46,5705.0,268.0,237.0
16:42:46,5705.0,268.0,237.0
16:42:46,5705.0,268.0,237.0
16:42:46,5705.0,268.0,237.0
16:42:46,5996.0,268.0,238.0
16:42:46,5996.0,268.0,238.0
16:42:46,5996.0,268.0,238.0
16:42:46,5996.0,268.0,238.0
16:42:46,5860.0,269.0,238.0
16:42:46,5860.0,269.0,238.0
16:42:46,5860.0,269.0,238.0
16:42:46,5860.0,269.0,238.0
16:42:46,5918.0,267.0,237.0
16:42:46,5918.0,267.0,237.0
16:42:46,5918.0,267.0,237.0
16:42:46,5918.0,267.0,237.0
16:42:46,6201.0,268.0,239.0
16:42:46,6201.0,268.0,239.0
16:42:46,6201.0,268.0,239.0
16:42:46,6201.0,268.0,239.0
16:42:46,6267.0,267.0,238.0
16:42:46,6267.0,267.0,238.0
16:42:46,6267.0,267.0,238.0
16:42:46,6267.0,267.0,238.0
16:42:46,6438.0,268.0,239.0
16:42:46,6438.0,268.0,239.0
16:42:46,6438.0,268.0,239.0
16:42:46,6438.0,268.0,239.0
16:42:46,6483.0,268.0,236.0
16:42:46,6483.0,268.0,236.0
16:42:46,6483.0,268.0,236.0
16:42:46,6483.0,268.0,236.0
16:42:46,6367.0,268.0,237.0
16:42:46,6367.0,268.0,237.0
16:42:46,6367.0,268.0,237.0
16:42:46,6367.0,268.0,237.0
16:42:46,6344.0,267.0,238.0
16:42:46,6344.0,267.0,238.0
16:42:46,6344.0,267.0,238.0
16:42:46,6344.0,267.0,238.0
16:42:46,6342.0,267.0,237.0
16:42:46,6342.0,267.0,237.0
16:42:46,6342.0,267.0,237.0
16:42:46,6342.0,267.0,237.0
16:42:46,6397.0,268.0,237.0
16:42:46,6397.0,268.0,237.0
16:42:46,6397.0,268.0,237.0
16:42:46,6397.0,268.0,237.0
16:42:46,6139.0,267.0,239.0
16:42:46,6139.0,267.0,239.0
16:42:46,6139.0,267.0,239.0
16:42:46,6139.0,267.0,239.0
16:42:46,6182.0,268.0,237.0
16:42:46,6182.0,268.0,237.0
16:42:46,6182.0,268.0,237.0
16:42:46,6182.0,268.0,237.0
16:42:46,6047.0,267.0,239.0
16:42:46,6047.0,267.0,239.0
16:42:46,6047.0,267.0,239.0
16:42:46,6047.0,267.0,239.0
16:42:46,6165.0,268.0,239.0
16:42:46,6165.0,268.0,239.0
16:42:46,6165.0,268.0,239.0
16:42:46,6165.0,268.0,239.0
16:42:46,6041.0,267.0,236.0
16:42:46,6041.0,267.0,236.0
16:42:46,6041.0,267.0,236.0
16:42:46,6041.0,267.0,236.0
16:42:46,6131.0,268.0,238.0
16:42:46,6131.0,268.0,238.0
16:42:46,6131.0,268.0,238.0
16:42:46,6131.0,268.0,238.0
16:42:46,6079.0,267.0,237.0
16:42:46,6079.0,267.0,237.0
16:42:46,6079.0,267.0,237.0
16:42:46,6079.0,267.0,237.0
16:42:46,6284.0,267.0,236.0
16:42:46,6284.0,267.0,236.0
16:42:46,6284.0,267.0,236.0
16:42:46,6284.0,267.0,236.0
16:42:46,6190.0,268.0,237.0
16:42:46,6190.0,268.0,237.0
16:42:46,6190.0,268.0,237.0
16:42:46,6190.0,268.0,237.0
16:42:46,6246.0,267.0,235.0
16:42:46,6246.0,267.0,235.0
16:42:46,6246.0,267.0,235.0
16:42:46,6246.0,267.0,235.0
16:42:46,6317.0,267.0,237.0
16:42:46,6317.0,267.0,237.0
16:42:46,6317.0,267.0,237.0
16:42:46,6317.0,267.0,237.0
16:42:46,6153.0,266.0,235.0
16:42:46,6153.0,266.0,235.0
16:42:46,6153.0,266.0,235.0
16:42:46,6153.0,266.0,235.0
16:42:46,6442.0,267.0,237.0
16:42:46,6442.0,267.0,237.0
16:42:46,6442.0,267.0,237.0
16:42:46,6442.0,267.0,237.0
16:42:46,6195.0,265.0,236.0
16:42:46,6195.0,265.0,236.0
16:42:46,6195.0,265.0,236.0
16:42:46,6195.0,265.0,236.0
16:42:46,6228.0,266.0,237.0
16:42:46,6228.0,266.0,237.0
16:42:46,6228.0,266.0,237.0
16:42:46,6228.0,266.0,237.0
16:42:46,6325.0,266.0,236.0
16:42:46,6325.0,266.0,236.0
16:42:46,6325.0,266.0,236.0
16:42:46,6325.0,266.0,236.0
16:42:46,6534.0,266.0,236.0
16:42:46,6534.0,266.0,236.0
16:42:46,6534.0,266.0,236.0
16:42:46,6534.0,266.0,236.0
16:42:46,6358.0,266.0,236.0
16:42:46,6358.0,266.0,236.0
16:42:46,6358.0,266.0,236.0
16:42:46,6358.0,266.0,236.0
16:42:46,6552.0,266.0,235.0
16:42:46,6552.0,266.0,235.0
16:42:46,6552.0,266.0,235.0
16:42:46,6552.0,266.0,235.0
16:42:46,6689.0,265.0,236.0
16:42:46,6689.0,265.0,236.0
16:42:46,6689.0,265.0,236.0
16:42:46,6689.0,265.0,236.0
16:42:46,6709.0,264.0,236.0
16:42:46,6709.0,264.0,236.0
16:42:46,6709.0,264.0,236.0
16:42:46,6709.0,264.0,236.0
16:42:46,6636.0,266.0,235.0
16:42:46,6636.0,266.0,235.0
16:42:46,6636.0,266.0,235.0
16:42:46,6636.0,266.0,235.0
16:42:46,6499.0,265.0,236.0
16:42:46,6499.0,265.0,236.0
16:42:46,6499.0,265.0,236.0
16:42:46,6499.0,265.0,236.0
16:42:46,6348.0,265.0,236.0
16:42:46,6348.0,265.0,236.0
16:42:46,6348.0,265.0,236.0
16:42:46,6348.0,265.0,236.0
16:42:46,6537.0,265.0,234.0
16:42:46,6537.0,265.0,234.0
16:42:46,6537.0,265.0,234.0
16:42:46,6537.0,265.0,234.0
16:42:46,6549.0,265.0,235.0
16:42:46,6549.0,265.0,235.0
16:42:46,6549.0,265.0,235.0
16:42:46,6549.0,265.0,235.0
16:42:46,6582.0,265.0,234.0
16:42:46,6582.0,265.0,234.0
16:42:46,6582.0,265.0,234.0
16:42:46,6582.0,265.0,234.0
16:42:46,6544.0,264.0,235.0
16:42:46,6544.0,264.0,235.0
16:42:46,6544.0,264.0,235.0
16:42:46,6544.0,264.0,235.0
16:42:46,6567.0,265.0,235.0
16:42:46,6567.0,265.0,235.0
16:42:46,6567.0,265.0,235.0
16:42:46,6567.0,265.0,235.0
16:42:46,6619.0,265.0,235.0
16:42:46,6619.0,265.0,235.0
16:42:46,6619.0,265.0,235.0
16:42:46,6619.0,265.0,235.0
16:42:46,6576.0,265.0,235.0
16:42:46,6576.0,265.0,235.0
16:42:46,6576.0,265.0,235.0
16:42:46,6576.0,265.0,235.0
16:42:46,6451.0,265.0,235.0
16:42:46,6451.0,265.0,235.0
16:42:46,6451.0,265.0,235.0
16:42:46,6451.0,265.0,235.0
16:42:46,6346.0,265.0,233.0
16:42:46,6346.0,265.0,233.0
16:42:46,6346.0,265.0,233.0
16:42:46,6346.0,265.0,233.0
16:42:46,6397.0,264.0,234.0
16:42:46,6397.0,264.0,234.0
16:42:46,6397.0,264.0,234.0
16:42:46,6397.0,264.0,234.0
16:42:46,7915.0,265.0,236.0
16:42:46,7915.0,265.0,236.0
16:42:46,7915.0,265.0,236.0
16:42:46,7915.0,265.0,236.0
16:42:46,6097.0,264.0,235.0
16:42:46,6097.0,264.0,235.0
16:42:46,6097.0,264.0,235.0
16:42:47,6097.0,264.0,235.0
16:42:47,6394.0,265.0,235.0
16:42:47,6394.0,265.0,235.0
16:42:47,6394.0,265.0,235.0
16:42:47,6394.0,265.0,235.0
16:42:47,6454.0,265.0,234.0
16:42:47,6454.0,265.0,234.0
16:42:47,6454.0,265.0,234.0
16:42:47,6454.0,265.0,234.0
16:42:47,6457.0,264.0,235.0
16:42:47,6457.0,264.0,235.0
16:42:47,6457.0,264.0,235.0
16:42:47,6457.0,264.0,235.0
16:42:47,6535.0,264.0,235.0
16:42:47,6535.0,264.0,235.0
16:42:47,6535.0,264.0,235.0
16:42:47,6535.0,264.0,235.0
16:42:47,6773.0,265.0,234.0
16:42:47,6773.0,265.0,234.0
16:42:47,6773.0,265.0,234.0
16:42:47,6773.0,265.0,234.0
16:42:47,6760.0,265.0,236.0
16:42:47,6760.0,265.0,236.0
16:42:47,6760.0,265.0,236.0
16:42:47,6760.0,265.0,236.0
16:42:47,6767.0,265.0,236.0
16:42:47,6767.0,265.0,236.0
16:42:47,6767.0,265.0,236.0
16:42:47,6767.0,265.0,236.0
16:42:47,6512.0,265.0,234.0
16:42:47,6512.0,265.0,234.0
16:42:47,6512.0,265.0,234.0
16:42:47,6512.0,265.0,234.0
16:42:47,6680.0,264.0,236.0
16:42:47,6680.0,264.0,236.0
16:42:47,6680.0,264.0,236.0
16:42:47,6680.0,264.0,236.0
16:42:47,6739.0,265.0,236.0
16:42:47,6739.0,265.0,236.0
16:42:47,6739.0,265.0,236.0
16:42:47,6739.0,265.0,236.0
16:42:47,6658.0,265.0,235.0
16:42:47,6658.0,265.0,235.0
16:42:47,6658.0,265.0,235.0
16:42:47,6658.0,265.0,235.0
16:42:47,6474.0,265.0,236.0
16:42:47,6474.0,265.0,236.0
16:42:47,6474.0,265.0,236.0
16:42:47,6474.0,265.0,236.0
16:42:47,6550.0,265.0,236.0
16:42:47,6550.0,265.0,236.0
16:42:47,6550.0,265.0,236.0
16:42:47,6550.0,265.0,236.0
16:42:47,6581.0,265.0,235.0
16:42:47,6581.0,265.0,235.0
16:42:47,6581.0,265.0,235.0
16:42:47,6581.0,265.0,235.0
16:42:47,6491.0,267.0,236.0
16:42:47,6491.0,267.0,236.0
16:42:47,6491.0,267.0,236.0
16:42:47,6491.0,267.0,236.0
16:42:47,6724.0,266.0,237.0
16:42:47,6724.0,266.0,237.0
16:42:47,6724.0,266.0,237.0
16:42:47,6724.0,266.0,237.0
16:42:47,6614.0,265.0,236.0
16:42:47,6614.0,265.0,236.0
16:42:47,6614.0,265.0,236.0
16:42:47,6614.0,265.0,236.0
16:42:47,6740.0,267.0,236.0
16:42:47,6740.0,267.0,236.0
16:42:47,6740.0,267.0,236.0
16:42:47,6740.0,267.0,236.0
16:42:47,6548.0,267.0,236.0
16:42:47,6548.0,267.0,236.0
16:42:47,6548.0,267.0,236.0
16:42:47,6548.0,267.0,236.0
16:42:47,6527.0,265.0,236.0
16:42:47,6527.0,265.0,236.0
16:42:47,6527.0,265.0,236.0
16:42:47,6527.0,265.0,236.0
16:42:47,6546.0,267.0,237.0
16:42:47,6546.0,267.0,237.0
16:42:47,6546.0,267.0,237.0
16:42:47,6546.0,267.0,237.0
16:42:47,6394.0,266.0,237.0
16:42:47,6394.0,266.0,237.0
16:42:47,6394.0,266.0,237.0
16:42:47,6394.0,266.0,237.0
16:42:47,6537.0,267.0,237.0
16:42:47,6537.0,267.0,237.0
16:42:47,6537.0,267.0,237.0
16:42:47,6537.0,267.0,237.0
16:42:47,6528.0,267.0,236.0
16:42:47,6528.0,267.0,236.0
16:42:47,6528.0,267.0,236.0
16:42:47,6528.0,267.0,236.0
16:42:47,6587.0,267.0,237.0
16:42:47,6587.0,267.0,237.0
16:42:47,6587.0,267.0,237.0
16:42:47,6587.0,267.0,237.0
16:42:47,6590.0,265.0,237.0
16:42:47,6590.0,265.0,237.0
16:42:47,6590.0,265.0,237.0
16:42:47,6590.0,265.0,237.0
16:42:47,6620.0,267.0,237.0
16:42:47,6620.0,267.0,237.0
16:42:47,6620.0,267.0,237.0
16:42:47,6620.0,267.0,237.0
16:42:47,6587.0,268.0,237.0
16:42:47,6587.0,268.0,237.0
16:42:47,6587.0,268.0,237.0
16:42:47,6587.0,268.0,237.0
16:42:47,6627.0,266.0,237.0
16:42:47,6627.0,266.0,237.0
16:42:47,6627.0,266.0,237.0
16:42:47,6627.0,266.0,237.0
16:42:47,6442.0,266.0,236.0
16:42:47,6442.0,266.0,236.0
16:42:47,6442.0,266.0,236.0
16:42:47,6442.0,266.0,236.0
16:42:47,6605.0,267.0,237.0
16:42:47,6605.0,267.0,237.0
16:42:47,6605.0,267.0,237.0
16:42:47,6605.0,267.0,237.0
16:42:47,6698.0,267.0,238.0
16:42:47,6698.0,267.0,238.0
16:42:47,6698.0,267.0,238.0
16:42:47,6698.0,267.0,238.0
16:42:47,6590.0,267.0,237.0
16:42:47,6590.0,267.0,237.0
16:42:47,6590.0,267.0,237.0
16:42:47,6590.0,267.0,237.0
16:42:47,6680.0,266.0,238.0
16:42:47,6680.0,266.0,238.0
16:42:47,6680.0,266.0,238.0
16:42:47,6680.0,266.0,238.0
16:42:47,6743.0,267.0,238.0
16:42:47,6743.0,267.0,238.0
16:42:47,6743.0,267.0,238.0
16:42:47,6743.0,267.0,238.0
16:42:47,6517.0,266.0,237.0
16:42:47,6517.0,266.0,237.0
16:42:47,6517.0,266.0,237.0
16:42:47,6517.0,266.0,237.0
16:42:47,6519.0,268.0,237.0
16:42:47,6519.0,268.0,237.0
16:42:47,6519.0,268.0,237.0
16:42:47,6519.0,268.0,237.0
16:42:47,6308.0,268.0,238.0
16:42:47,6308.0,268.0,238.0
16:42:47,6308.0,268.0,238.0
16:42:47,6308.0,268.0,238.0
16:42:47,6577.0,267.0,237.0
16:42:47,6577.0,267.0,237.0
16:42:47,6577.0,267.0,237.0
16:42:47,6577.0,267.0,237.0
16:42:47,6287.0,266.0,237.0
16:42:47,6287.0,266.0,237.0
16:42:47,6287.0,266.0,237.0
16:42:47,6287.0,266.0,237.0
16:42:47,6350.0,268.0,239.0
16:42:47,6350.0,268.0,239.0
16:42:47,6350.0,268.0,239.0
16:42:47,6350.0,268.0,239.0
16:42:47,6427.0,267.0,239.0
16:42:47,6427.0,267.0,239.0
16:42:47,6427.0,267.0,239.0
16:42:47,6427.0,267.0,239.0
16:42:47,8032.0,268.0,237.0
16:42:47,8032.0,268.0,237.0
16:42:47,8032.0,268.0,237.0
16:42:47,8032.0,268.0,237.0
16:42:47,6160.0,269.0,238.0
16:42:47,6160.0,269.0,238.0
16:42:47,6160.0,269.0,238.0
16:42:47,6160.0,269.0,238.0
16:42:47,6348.0,267.0,239.0
16:42:47,6348.0,267.0,239.0
16:42:47,6348.0,267.0,239.0
16:42:47,6348.0,267.0,239.0
16:42:47,6309.0,267.0,237.0
16:42:47,6309.0,267.0,237.0
16:42:47,6309.0,267.0,237.0
16:42:47,6309.0,267.0,237.0
16:42:47,6196.0,269.0,239.0
16:42:47,6196.0,269.0,239.0
16:42:47,6196.0,269.0,239.0
16:42:47,6196.0,269.0,239.0
16:42:47,6311.0,269.0,238.0
16:42:47,6311.0,269.0,238.0
16:42:47,6311.0,269.0,238.0
16:42:47,6311.0,269.0,238.0
16:42:47,6424.0,267.0,238.0
16:42:47,6424.0,267.0,238.0
16:42:47,6424.0,267.0,238.0
16:42:47,6424.0,267.0,238.0
16:42:47,6412.0,268.0,237.0
16:42:47,6412.0,268.0,237.0
16:42:47,6412.0,268.0,237.0
16:42:47,6412.0,268.0,237.0
16:42:48,6317.0,268.0,237.0
16:42:48,6317.0,268.0,237.0
16:42:48,6317.0,268.0,237.0
16:42:48,6317.0,268.0,237.0
16:42:48,6548.0,267.0,238.0
16:42:48,6548.0,267.0,238.0
16:42:48,6548.0,267.0,238.0
16:42:48,6548.0,267.0,238.0
16:42:48,6431.0,269.0,238.0
16:42:48,6431.0,269.0,238.0
16:42:48,6431.0,269.0,238.0
16:42:48,6431.0,269.0,238.0
16:42:48,6536.0,268.0,237.0
16:42:48,6536.0,268.0,237.0
16:42:48,6536.0,268.0,237.0
16:42:48,6536.0,268.0,237.0
16:42:48,6692.0,266.0,238.0
16:42:48,6692.0,266.0,238.0
16:42:48,6692.0,266.0,238.0
16:42:48,6692.0,266.0,238.0
16:42:48,6736.0,268.0,238.0
16:42:48,6736.0,268.0,238.0
16:42:48,6736.0,268.0,238.0
16:42:48,6736.0,268.0,238.0
16:42:48,6585.0,267.0,237.0
16:42:48,6585.0,267.0,237.0
16:42:48,6585.0,267.0,237.0
16:42:48,6585.0,267.0,237.0
16:42:48,6490.0,266.0,238.0
16:42:48,6490.0,266.0,238.0
16:42:48,6490.0,266.0,238.0
16:42:48,6490.0,266.0,238.0
16:42:48,6211.0,268.0,237.0
16:42:48,6211.0,268.0,237.0
16:42:48,6211.0,268.0,237.0
16:42:48,6211.0,268.0,237.0
16:42:48,6189.0,267.0,238.0
16:42:48,6189.0,267.0,238.0
16:42:48,6189.0,267.0,238.0
16:42:48,6189.0,267.0,238.0
16:42:48,6334.0,268.0,238.0
16:42:48,6334.0,268.0,238.0
16:42:48,6334.0,268.0,238.0
16:42:48,6334.0,268.0,238.0
16:42:48,6462.0,267.0,236.0
16:42:48,6462.0,267.0,236.0
16:42:48,6462.0,267.0,236.0
16:42:48,6462.0,267.0,236.0
16:42:48,6263.0,267.0,237.0
16:42:48,6263.0,267.0,237.0
16:42:48,6263.0,267.0,237.0
16:42:48,6263.0,267.0,237.0
16:42:48,6192.0,266.0,236.0
16:42:48,6192.0,266.0,236.0
16:42:48,6192.0,266.0,236.0
16:42:48,6192.0,266.0,236.0
16:42:48,6338.0,266.0,236.0
16:42:48,6338.0,266.0,236.0
16:42:48,6338.0,266.0,236.0
16:42:48,6338.0,266.0,236.0
16:42:48,6074.0,267.0,236.0
16:42:48,6074.0,267.0,236.0
16:42:48,6074.0,267.0,236.0
16:42:48,6074.0,267.0,236.0
16:42:48,6079.0,266.0,235.0
16:42:48,6079.0,266.0,235.0
16:42:48,6079.0,266.0,235.0
16:42:48,6079.0,266.0,235.0
16:42:48,6120.0,265.0,236.0
16:42:48,6120.0,265.0,236.0
16:42:48,6120.0,265.0,236.0
16:42:48,6120.0,265.0,236.0
16:42:48,6320.0,266.0,236.0
16:42:48,6320.0,266.0,236.0
16:42:48,6320.0,266.0,236.0
16:42:48,6320.0,266.0,236.0
16:42:48,6011.0,265.0,236.0
16:42:48,6011.0,265.0,236.0
16:42:48,6011.0,265.0,236.0
16:42:48,6011.0,265.0,236.0
16:42:48,6157.0,265.0,236.0
16:42:48,6157.0,265.0,236.0
16:42:48,6157.0,265.0,236.0
16:42:48,6157.0,265.0,236.0
16:42:48,6197.0,266.0,235.0
16:42:48,6197.0,266.0,235.0
16:42:48,6197.0,266.0,235.0
16:42:48,6197.0,266.0,235.0
16:42:48,6221.0,265.0,236.0
16:42:48,6221.0,265.0,236.0
16:42:48,6221.0,265.0,236.0
16:42:48,6221.0,265.0,236.0
16:42:48,6318.0,266.0,236.0
16:42:48,6318.0,266.0,236.0
16:42:48,6318.0,266.0,236.0
16:42:48,6318.0,266.0,236.0
16:42:48,6228.0,264.0,234.0
16:42:48,6228.0,264.0,234.0
16:42:48,6228.0,264.0,234.0
16:42:48,6228.0,264.0,234.0
16:42:48,6185.0,266.0,235.0
16:42:48,6185.0,266.0,235.0
16:42:48,6185.0,266.0,235.0
16:42:48,6185.0,266.0,235.0
16:42:48,6175.0,266.0,235.0
16:42:48,6175.0,266.0,235.0
16:42:48,6175.0,266.0,235.0
16:42:48,6175.0,266.0,235.0
16:42:48,6172.0,264.0,235.0
16:42:48,6172.0,264.0,235.0
16:42:48,6172.0,264.0,235.0
16:42:48,6172.0,264.0,235.0
16:42:48,6156.0,264.0,236.0
16:42:48,6156.0,264.0,236.0
16:42:48,6156.0,264.0,236.0
16:42:48,6156.0,264.0,236.0
16:42:48,6099.0,264.0,235.0
16:42:48,6099.0,264.0,235.0
16:42:48,6099.0,264.0,235.0
16:42:48,6099.0,264.0,235.0
16:42:48,6000.0,265.0,235.0
16:42:48,6000.0,265.0,235.0
16:42:48,6000.0,265.0,235.0
16:42:48,6000.0,265.0,235.0
16:42:48,6187.0,265.0,236.0
16:42:48,6187.0,265.0,236.0
16:42:48,6187.0,265.0,236.0
16:42:48,6187.0,265.0,236.0
16:42:48,6048.0,264.0,235.0
16:42:48,6048.0,264.0,235.0
16:42:48,6048.0,264.0,235.0
16:42:48,6048.0,264.0,235.0
16:42:48,5981.0,265.0,235.0
16:42:48,5981.0,265.0,235.0
16:42:48,5981.0,265.0,235.0
16:42:48,5981.0,265.0,235.0
16:42:48,6008.0,264.0,235.0
16:42:48,6008.0,264.0,235.0
16:42:48,6008.0,264.0,235.0
16:42:48,6008.0,264.0,235.0
16:42:48,6194.0,265.0,236.0
16:42:48,6194.0,265.0,236.0
16:42:48,6194.0,265.0,236.0
16:42:48,6194.0,265.0,236.0
16:42:48,7479.0,265.0,235.0
16:42:48,7479.0,265.0,235.0
16:42:48,7479.0,265.0,235.0
16:42:48,7479.0,265.0,235.0
16:42:48,5748.0,265.0,234.0
16:42:48,5748.0,265.0,234.0
16:42:48,5748.0,265.0,234.0
16:42:48,5748.0,265.0,234.0
16:42:48,5996.0,265.0,234.0
16:42:48,5996.0,265.0,234.0
16:42:48,5996.0,265.0,234.0
16:42:48,5996.0,265.0,234.0
16:42:48,5721.0,265.0,235.0
16:42:48,5721.0,265.0,235.0
16:42:48,5721.0,265.0,235.0
16:42:48,5721.0,265.0,235.0
16:42:48,5965.0,264.0,234.0
16:42:48,5965.0,264.0,234.0
16:42:48,5965.0,264.0,234.0
16:42:48,5965.0,264.0,234.0
16:42:48,5767.0,266.0,235.0
16:42:48,5767.0,266.0,235.0
16:42:48,5767.0,266.0,235.0
16:42:48,5767.0,266.0,235.0
16:42:48,6025.0,265.0,236.0
16:42:48,6025.0,265.0,236.0
16:42:48,6025.0,265.0,236.0
16:42:48,6025.0,265.0,236.0
16:42:48,5918.0,265.0,234.0
16:42:48,5918.0,265.0,234.0
16:42:48,5918.0,265.0,234.0
16:42:48,5918.0,265.0,234.0
16:42:48,6058.0,263.0,235.0
16:42:48,6058.0,263.0,235.0
16:42:48,6058.0,263.0,235.0
16:42:48,6058.0,263.0,235.0
16:42:48,6113.0,265.0,236.0
16:42:48,6113.0,265.0,236.0
16:42:48,6113.0,265.0,236.0
16:42:48,6113.0,265.0,236.0
16:42:48,6035.0,266.0,235.0
16:42:48,6035.0,266.0,235.0
16:42:48,6035.0,266.0,235.0
16:42:48,6035.0,266.0,235.0
16:42:48,5952.0,266.0,236.0
16:42:48,5952.0,266.0,236.0
16:42:48,5952.0,266.0,236.0
16:42:48,5952.0,266.0,236.0
16:42:48,6069.0,265.0,236.0
16:42:48,6069.0,265.0,236.0
16:42:48,6069.0,265.0,236.0
16:42:48,6069.0,265.0,236.0
16:42:48,6012.0,265.0,235.0
16:42:48,6012.0,265.0,235.0
16:42:48,6012.0,265.0,235.0
16:42:48,6012.0,265.0,235.0
16:42:49,5940.0,264.0,236.0
16:42:49,5940.0,264.0,236.0
16:42:49,5940.0,264.0,236.0
16:42:49,5940.0,264.0,236.0
16:42:49,5963.0,265.0,237.0
16:42:49,5963.0,265.0,237.0
16:42:49,5963.0,265.0,237.0
16:42:49,5963.0,265.0,237.0
16:42:49,5940.0,265.0,236.0
16:42:49,5940.0,265.0,236.0
16:42:49,5940.0,265.0,236.0
16:42:49,5940.0,265.0,236.0
16:42:49,5824.0,266.0,237.0
16:42:49,5824.0,266.0,237.0
16:42:49,5824.0,266.0,237.0
16:42:49,5824.0,266.0,237.0
16:42:49,5832.0,265.0,236.0
16:42:49,5832.0,265.0,236.0
16:42:49,5832.0,265.0,236.0
16:42:49,5832.0,265.0,236.0
16:42:49,5778.0,266.0,237.0
16:42:49,5778.0,266.0,237.0
16:42:49,5778.0,266.0,237.0
16:42:49,5778.0,266.0,237.0
16:42:49,5797.0,266.0,237.0
16:42:49,5797.0,266.0,237.0
16:42:49,5797.0,266.0,237.0
16:42:49,5797.0,266.0,237.0
16:42:49,5662.0,267.0,237.0
16:42:49,5662.0,267.0,237.0
16:42:49,5662.0,267.0,237.0
16:42:49,5662.0,267.0,237.0
16:42:49,5732.0,266.0,238.0
16:42:49,5732.0,266.0,238.0
16:42:49,5732.0,266.0,238.0
16:42:49,5732.0,266.0,238.0
16:42:49,6067.0,266.0,236.0
16:42:49,6067.0,266.0,236.0
16:42:49,6067.0,266.0,236.0
16:42:49,6067.0,266.0,236.0
16:42:49,6061.0,267.0,237.0
16:42:49,6061.0,267.0,237.0
16:42:49,6061.0,267.0,237.0
16:42:49,6061.0,267.0,237.0
16:42:49,6038.0,267.0,236.0
16:42:49,6038.0,267.0,236.0
16:42:49,6038.0,267.0,236.0
16:42:49,6038.0,267.0,236.0
16:42:49,5856.0,265.0,238.0
16:42:49,5856.0,265.0,238.0
16:42:49,5856.0,265.0,238.0
16:42:49,5856.0,265.0,238.0
16:42:49,5802.0,268.0,236.0
16:42:49,5802.0,268.0,236.0
16:42:49,5802.0,268.0,236.0
16:42:49,5802.0,268.0,236.0
16:42:49,6056.0,267.0,238.0
16:42:49,6056.0,267.0,238.0
16:42:49,6056.0,267.0,238.0
16:42:49,6056.0,267.0,238.0
16:42:49,5830.0,267.0,237.0
16:42:49,5830.0,267.0,237.0
16:42:49,5830.0,267.0,237.0
16:42:49,5830.0,267.0,237.0
16:42:49,5873.0,266.0,236.0
16:42:49,5873.0,266.0,236.0
16:42:49,5873.0,266.0,236.0
16:42:49,5873.0,266.0,236.0
16:42:49,5950.0,266.0,237.0
16:42:49,5950.0,266.0,237.0
16:42:49,5950.0,266.0,237.0
16:42:49,5950.0,266.0,237.0
16:42:49,6014.0,267.0,237.0
16:42:49,6014.0,267.0,237.0
16:42:49,6014.0,267.0,237.0
16:42:49,6014.0,267.0,237.0
16:42:49,6003.0,268.0,237.0
16:42:49,6003.0,268.0,237.0
16:42:49,6003.0,268.0,237.0
16:42:49,6003.0,268.0,237.0
16:42:49,5846.0,268.0,237.0
16:42:49,5846.0,268.0,237.0
16:42:49,5846.0,268.0,237.0
16:42:49,5846.0,268.0,237.0
16:42:49,5853.0,266.0,237.0
16:42:49,5853.0,266.0,237.0
16:42:49,5853.0,266.0,237.0
16:42:49,5853.0,266.0,237.0
16:42:49,5830.0,267.0,237.0
16:42:49,5830.0,267.0,237.0
16:42:49,5830.0,267.0,237.0
16:42:49,5830.0,267.0,237.0
16:42:49,5946.0,268.0,238.0
16:42:49,5946.0,268.0,238.0
16:42:49,5946.0,268.0,238.0
16:42:49,5946.0,268.0,238.0
16:42:49,6157.0,266.0,238.0
16:42:49,6157.0,266.0,238.0
16:42:49,6157.0,266.0,238.0
16:42:49,6157.0,266.0,238.0
16:42:49,6033.0,266.0,239.0
16:42:49,6033.0,266.0,239.0
16:42:49,6033.0,266.0,239.0
16:42:49,6033.0,266.0,239.0
16:42:49,6165.0,267.0,238.0
16:42:49,6165.0,267.0,238.0
16:42:49,6165.0,267.0,238.0
16:42:49,6165.0,267.0,238.0
16:42:49,6034.0,268.0,239.0
16:42:49,6034.0,268.0,239.0
16:42:49,6034.0,268.0,239.0
16:42:49,6034.0,268.0,239.0
16:42:49,6173.0,268.0,239.0
16:42:49,6173.0,268.0,239.0
16:42:49,6173.0,268.0,239.0
16:42:49,6173.0,268.0,239.0
16:42:49,7480.0,267.0,237.0
16:42:49,7480.0,267.0,237.0
16:42:49,7480.0,267.0,237.0
16:42:49,7480.0,267.0,237.0
16:42:49,5765.0,268.0,238.0
16:42:49,5765.0,268.0,238.0
16:42:49,5765.0,268.0,238.0
16:42:49,5765.0,268.0,238.0
16:42:49,5915.0,268.0,238.0
16:42:49,5915.0,268.0,238.0
16:42:49,5915.0,268.0,238.0
16:42:49,5915.0,268.0,238.0
16:42:49,6030.0,267.0,238.0
16:42:49,6030.0,267.0,238.0
16:42:49,6030.0,267.0,238.0
16:42:49,6030.0,267.0,238.0
16:42:49,5975.0,268.0,239.0
16:42:49,5975.0,268.0,239.0
16:42:49,5975.0,268.0,239.0
16:42:49,5975.0,268.0,239.0
16:42:49,6053.0,267.0,238.0
16:42:49,6053.0,267.0,238.0
16:42:49,6053.0,267.0,238.0
16:42:49,6053.0,267.0,238.0
16:42:49,6129.0,267.0,238.0
16:42:49,6129.0,267.0,238.0
16:42:49,6129.0,267.0,238.0
16:42:49,6129.0,267.0,238.0
16:42:49,6183.0,268.0,239.0
16:42:49,6183.0,268.0,239.0
16:42:49,6183.0,268.0,239.0
16:42:49,6183.0,268.0,239.0
16:42:49,6158.0,268.0,238.0
16:42:49,6158.0,268.0,238.0
16:42:49,6158.0,268.0,238.0
16:42:49,6158.0,268.0,238.0
16:42:49,6217.0,266.0,237.0
16:42:49,6217.0,266.0,237.0
16:42:49,6217.0,266.0,237.0
16:42:49,6217.0,266.0,237.0
16:42:49,6248.0,268.0,238.0
16:42:49,6248.0,268.0,238.0
16:42:49,6248.0,268.0,238.0
16:42:49,6248.0,268.0,238.0
16:42:49,6352.0,268.0,237.0
16:42:49,6352.0,268.0,237.0
16:42:49,6352.0,268.0,237.0
16:42:49,6352.0,268.0,237.0
16:42:49,6503.0,266.0,239.0
16:42:49,6503.0,266.0,239.0
16:42:49,6503.0,266.0,239.0
16:42:49,6503.0,266.0,239.0
16:42:49,6500.0,267.0,237.0
16:42:49,6500.0,267.0,237.0
16:42:49,6500.0,267.0,237.0
16:42:49,6500.0,267.0,237.0
16:42:49,6498.0,267.0,237.0
16:42:49,6498.0,267.0,237.0
16:42:49,6498.0,267.0,237.0
16:42:49,6498.0,267.0,237.0
16:42:49,6200.0,267.0,237.0
16:42:49,6200.0,267.0,237.0
16:42:49,6200.0,267.0,237.0
16:42:49,6200.0,267.0,237.0
16:42:49,6349.0,266.0,236.0
16:42:49,6349.0,266.0,236.0
16:42:49,6349.0,266.0,236.0
16:42:49,6349.0,266.0,236.0
16:42:49,6253.0,267.0,237.0
16:42:49,6253.0,267.0,237.0
16:42:49,6253.0,267.0,237.0
16:42:49,6253.0,267.0,237.0
16:42:49,6124.0,267.0,236.0
16:42:49,6124.0,267.0,236.0
16:42:49,6124.0,267.0,236.0
16:42:49,6124.0,267.0,236.0
16:42:49,6252.0,266.0,237.0
16:42:49,6252.0,266.0,237.0
16:42:49,6252.0,266.0,237.0
16:42:49,6252.0,266.0,237.0
16:42:49,6231.0,267.0,237.0
16:42:49,6231.0,267.0,237.0
16:42:49,6231.0,267.0,237.0
16:42:49,6231.0,267.0,237.0
16:42:49,6260.0,267.0,236.0
16:42:50,6260.0,267.0,236.0
16:42:50,6260.0,267.0,236.0
16:42:50,6260.0,267.0,236.0
16:42:50,6169.0,266.0,236.0
16:42:50,6169.0,266.0,236.0
16:42:50,6169.0,266.0,236.0
16:42:50,6169.0,266.0,236.0
16:42:50,6354.0,266.0,237.0
16:42:50,6354.0,266.0,237.0
16:42:50,6354.0,266.0,237.0
16:42:50,6354.0,266.0,237.0
16:42:50,6285.0,265.0,237.0
16:42:50,6285.0,265.0,237.0
16:42:50,6285.0,265.0,237.0
16:42:50,6285.0,265.0,237.0
16:42:50,6276.0,266.0,236.0
16:42:50,6276.0,266.0,236.0
16:42:50,6276.0,266.0,236.0
16:42:50,6276.0,266.0,236.0
16:42:50,6199.0,266.0,235.0
16:42:50,6199.0,266.0,235.0
16:42:50,6199.0,266.0,235.0
16:42:50,6199.0,266.0,235.0
16:42:50,6368.0,266.0,235.0
16:42:50,6368.0,266.0,235.0
16:42:50,6368.0,266.0,235.0
16:42:50,6368.0,266.0,235.0
16:42:50,6295.0,266.0,235.0
16:42:50,6295.0,266.0,235.0
16:42:50,6295.0,266.0,235.0
16:42:50,6295.0,266.0,235.0
16:42:50,6374.0,265.0,234.0
16:42:50,6374.0,265.0,234.0
16:42:50,6374.0,265.0,234.0
16:42:50,6374.0,265.0,234.0
16:42:50,6330.0,266.0,235.0
16:42:50,6330.0,266.0,235.0
16:42:50,6330.0,266.0,235.0
16:42:50,6330.0,266.0,235.0
16:42:50,6401.0,266.0,235.0
16:42:50,6401.0,266.0,235.0
16:42:50,6401.0,266.0,235.0
16:42:50,6401.0,266.0,235.0
16:42:50,6445.0,264.0,235.0
16:42:50,6445.0,264.0,235.0
16:42:50,6445.0,264.0,235.0
16:42:50,6445.0,264.0,235.0
16:42:50,6406.0,266.0,235.0
16:42:50,6406.0,266.0,235.0
16:42:50,6406.0,266.0,235.0
16:42:50,6406.0,266.0,235.0
16:42:50,6486.0,265.0,235.0
16:42:50,6486.0,265.0,235.0
16:42:50,6486.0,265.0,235.0
16:42:50,6486.0,265.0,235.0
16:42:50,6399.0,264.0,235.0
16:42:50,6399.0,264.0,235.0
16:42:50,6399.0,264.0,235.0
16:42:50,6399.0,264.0,235.0
16:42:50,6504.0,265.0,236.0
16:42:50,6504.0,265.0,236.0
16:42:50,6504.0,265.0,236.0
16:42:50,6504.0,265.0,236.0
16:42:50,6429.0,265.0,234.0
16:42:50,6429.0,265.0,234.0
16:42:50,6429.0,265.0,234.0
16:42:50,6429.0,265.0,234.0
16:42:50,6459.0,264.0,234.0
16:42:50,6459.0,264.0,234.0
16:42:50,6459.0,264.0,234.0
16:42:50,6459.0,264.0,234.0
16:42:50,6485.0,264.0,234.0
16:42:50,6485.0,264.0,234.0
16:42:50,6485.0,264.0,234.0
16:42:50,6485.0,264.0,234.0
16:42:50,6457.0,264.0,235.0
16:42:50,6457.0,264.0,235.0
16:42:50,6457.0,264.0,235.0
16:42:50,6457.0,264.0,235.0
16:42:50,7920.0,264.0,234.0
16:42:50,7920.0,264.0,234.0
16:42:50,7920.0,264.0,234.0
16:42:50,7920.0,264.0,234.0
16:42:50,6167.0,264.0,234.0
16:42:50,6167.0,264.0,234.0
16:42:50,6167.0,264.0,234.0
16:42:50,6167.0,264.0,234.0
16:42:50,6166.0,265.0,236.0
16:42:50,6166.0,265.0,236.0
16:42:50,6166.0,265.0,236.0
16:42:50,6166.0,265.0,236.0
16:42:50,6484.0,264.0,235.0
16:42:50,6484.0,264.0,235.0
16:42:50,6484.0,264.0,235.0
16:42:50,6484.0,264.0,235.0
16:42:50,6356.0,263.0,235.0
16:42:50,6356.0,263.0,235.0
16:42:50,6356.0,263.0,235.0
16:42:50,6356.0,263.0,235.0
16:42:50,6363.0,265.0,236.0
16:42:50,6363.0,265.0,236.0
16:42:50,6363.0,265.0,236.0
16:42:50,6363.0,265.0,236.0
16:42:50,6553.0,264.0,235.0
16:42:50,6553.0,264.0,235.0
16:42:50,6553.0,264.0,235.0
16:42:50,6553.0,264.0,235.0
16:42:50,6600.0,265.0,235.0
16:42:50,6600.0,265.0,235.0
16:42:50,6600.0,265.0,235.0
16:42:50,6600.0,265.0,235.0
16:42:50,6420.0,265.0,236.0
16:42:50,6420.0,265.0,236.0
16:42:50,6420.0,265.0,236.0
16:42:50,6420.0,265.0,236.0
16:42:50,6553.0,265.0,235.0
16:42:50,6553.0,265.0,235.0
16:42:50,6553.0,265.0,235.0
16:42:50,6553.0,265.0,235.0
16:42:50,6651.0,265.0,235.0
16:42:50,6651.0,265.0,235.0
16:42:50,6651.0,265.0,235.0
16:42:50,6651.0,265.0,235.0
16:42:50,6598.0,265.0,236.0
16:42:50,6598.0,265.0,236.0
16:42:50,6598.0,265.0,236.0
16:42:50,6598.0,265.0,236.0
16:42:50,6786.0,265.0,236.0
16:42:50,6786.0,265.0,236.0
16:42:50,6786.0,265.0,236.0
16:42:50,6786.0,265.0,236.0
16:42:50,6772.0,265.0,235.0
16:42:50,6772.0,265.0,235.0
16:42:50,6772.0,265.0,235.0
16:42:50,6772.0,265.0,235.0
16:42:50,6713.0,266.0,236.0
16:42:50,6713.0,266.0,236.0
16:42:50,6713.0,266.0,236.0
16:42:50,6713.0,266.0,236.0
16:42:50,6584.0,266.0,236.0
16:42:50,6584.0,266.0,236.0
16:42:50,6584.0,266.0,236.0
16:42:50,6584.0,266.0,236.0
16:42:50,6553.0,265.0,235.0
16:42:50,6553.0,265.0,235.0
16:42:50,6553.0,265.0,235.0
16:42:50,6553.0,265.0,235.0
16:42:50,6508.0,265.0,235.0
16:42:50,6508.0,265.0,235.0
16:42:50,6508.0,265.0,235.0
16:42:50,6508.0,265.0,235.0
16:42:50,6632.0,265.0,237.0
16:42:50,6632.0,265.0,237.0
16:42:50,6632.0,265.0,237.0
16:42:50,6632.0,265.0,237.0
16:42:50,6554.0,265.0,237.0
16:42:50,6554.0,265.0,237.0
16:42:50,6554.0,265.0,237.0
16:42:50,6554.0,265.0,237.0
16:42:50,6593.0,267.0,236.0
16:42:50,6593.0,267.0,236.0
16:42:50,6593.0,267.0,236.0
16:42:50,6593.0,267.0,236.0
16:42:50,6648.0,266.0,236.0
16:42:50,6648.0,266.0,236.0
16:42:50,6648.0,266.0,236.0
16:42:50,6648.0,266.0,236.0
16:42:50,6484.0,267.0,237.0
16:42:50,6484.0,267.0,237.0
16:42:50,6484.0,267.0,237.0
16:42:50,6484.0,267.0,237.0
16:42:50,6532.0,267.0,236.0
16:42:50,6532.0,267.0,236.0
16:42:50,6532.0,267.0,236.0
16:42:50,6532.0,267.0,236.0
16:42:50,6595.0,267.0,236.0
16:42:50,6595.0,267.0,236.0
16:42:50,6595.0,267.0,236.0
16:42:50,6595.0,267.0,236.0
16:42:50,6674.0,266.0,237.0
16:42:50,6674.0,266.0,237.0
16:42:50,6674.0,266.0,237.0
16:42:50,6674.0,266.0,237.0
16:42:50,6404.0,266.0,236.0
16:42:50,6404.0,266.0,236.0
16:42:50,6404.0,266.0,236.0
16:42:50,6404.0,266.0,236.0
16:42:50,6365.0,267.0,237.0
16:42:50,6365.0,267.0,237.0
16:42:50,6365.0,267.0,237.0
16:42:50,6365.0,267.0,237.0
16:42:50,6361.0,267.0,237.0
16:42:50,6361.0,267.0,237.0
16:42:50,6361.0,267.0,237.0
16:42:50,6361.0,267.0,237.0
16:42:50,6421.0,266.0,236.0
16:42:50,6421.0,266.0,236.0
16:42:50,6421.0,266.0,236.0
16:42:50,6421.0,266.0,236.0
16:42:50,6420.0,266.0,237.0
16:42:50,6420.0,266.0,237.0
16:42:51,6420.0,266.0,237.0
16:42:51,6420.0,266.0,237.0
16:42:51,6547.0,266.0,238.0
16:42:51,6547.0,266.0,238.0
16:42:51,6547.0,266.0,238.0
16:42:51,6547.0,266.0,238.0
16:42:51,6610.0,267.0,238.0
16:42:51,6610.0,267.0,238.0
16:42:51,6610.0,267.0,238.0
16:42:51,6610.0,267.0,238.0
16:42:51,6456.0,266.0,236.0
16:42:51,6456.0,266.0,236.0
16:42:51,6456.0,266.0,236.0
16:42:51,6456.0,266.0,236.0
16:42:51,6423.0,267.0,237.0
16:42:51,6423.0,267.0,237.0
16:42:51,6423.0,267.0,237.0
16:42:51,6423.0,267.0,237.0
16:42:51,6602.0,267.0,238.0
16:42:51,6602.0,267.0,238.0
16:42:51,6602.0,267.0,238.0
16:42:51,6602.0,267.0,238.0
16:42:51,6417.0,267.0,237.0
16:42:51,6417.0,267.0,237.0
16:42:51,6417.0,267.0,237.0
16:42:51,6417.0,267.0,237.0
16:42:51,6622.0,268.0,238.0
16:42:51,6622.0,268.0,238.0
16:42:51,6622.0,268.0,238.0
16:42:51,6622.0,268.0,238.0
16:42:51,6579.0,268.0,237.0
16:42:51,6579.0,268.0,237.0
16:42:51,6579.0,268.0,237.0
16:42:51,6579.0,268.0,237.0
16:42:51,6688.0,266.0,238.0
16:42:51,6688.0,266.0,238.0
16:42:51,6688.0,266.0,238.0
16:42:51,6688.0,266.0,238.0
16:42:51,6781.0,267.0,237.0
16:42:51,6781.0,267.0,237.0
16:42:51,6781.0,267.0,237.0
16:42:51,6781.0,267.0,237.0
16:42:51,6613.0,268.0,238.0
16:42:51,6613.0,268.0,238.0
16:42:51,6613.0,268.0,238.0
16:42:51,6613.0,268.0,238.0
16:42:51,6483.0,267.0,238.0
16:42:51,6483.0,267.0,238.0
16:42:51,6483.0,267.0,238.0
16:42:51,6483.0,267.0,238.0
16:42:51,6499.0,267.0,238.0
16:42:51,6499.0,267.0,238.0
16:42:51,6499.0,267.0,238.0
16:42:51,6499.0,267.0,238.0
16:42:51,6390.0,268.0,238.0
16:42:51,6390.0,268.0,238.0
16:42:51,6390.0,268.0,238.0
16:42:51,6390.0,268.0,238.0
16:42:51,7268.0,268.0,239.0
16:42:51,7268.0,268.0,239.0
16:42:51,7268.0,268.0,239.0
16:42:51,7268.0,268.0,239.0
16:42:51,6489.0,267.0,236.0
16:42:51,6489.0,267.0,236.0
16:42:51,6489.0,267.0,236.0
16:42:51,6489.0,267.0,236.0
16:42:51,6336.0,267.0,239.0
16:42:51,6336.0,267.0,239.0
16:42:51,6336.0,267.0,239.0
16:42:51,6336.0,267.0,239.0
16:42:51,6283.0,268.0,237.0
16:42:51,6283.0,268.0,237.0
16:42:51,6283.0,268.0,237.0
16:42:51,6283.0,268.0,237.0
16:42:51,6293.0,267.0,238.0
16:42:51,6293.0,267.0,238.0
16:42:51,6293.0,267.0,238.0
16:42:51,6293.0,267.0,238.0
16:42:51,6463.0,268.0,240.0
16:42:51,6463.0,268.0,240.0
16:42:51,6463.0,268.0,240.0
16:42:51,6463.0,268.0,240.0
16:42:51,6434.0,268.0,238.0
16:42:51,6434.0,268.0,238.0
16:42:51,6434.0,268.0,238.0
16:42:51,6434.0,268.0,238.0
16:42:51,6221.0,267.0,237.0
16:42:51,6221.0,267.0,237.0
16:42:51,6221.0,267.0,237.0
16:42:51,6221.0,267.0,237.0
16:42:51,6407.0,267.0,236.0
16:42:51,6407.0,267.0,236.0
16:42:51,6407.0,267.0,236.0
16:42:51,6407.0,267.0,236.0
16:42:51,6301.0,268.0,238.0
16:42:51,6301.0,268.0,238.0
16:42:51,6301.0,268.0,238.0
16:42:51,6301.0,268.0,238.0
16:42:51,6477.0,268.0,239.0
16:42:51,6477.0,268.0,239.0
16:42:51,6477.0,268.0,239.0
16:42:51,6477.0,268.0,239.0
16:42:51,6569.0,268.0,237.0
16:42:51,6569.0,268.0,237.0
16:42:51,6569.0,268.0,237.0
16:42:51,6569.0,268.0,237.0
16:42:51,6840.0,267.0,237.0
16:42:51,6840.0,267.0,237.0
16:42:51,6840.0,267.0,237.0
16:42:51,6840.0,267.0,237.0
16:42:51,6660.0,267.0,237.0
16:42:51,6660.0,267.0,237.0
16:42:51,6660.0,267.0,237.0
16:42:51,6660.0,267.0,237.0
16:42:51,6577.0,268.0,237.0
16:42:51,6577.0,268.0,237.0
16:42:51,6577.0,268.0,237.0
16:42:51,6577.0,268.0,237.0
16:42:51,6421.0,267.0,237.0
16:42:51,6421.0,267.0,237.0
16:42:51,6421.0,267.0,237.0
16:42:51,6421.0,267.0,237.0
16:42:51,6265.0,266.0,237.0
16:42:51,6265.0,266.0,237.0
16:42:51,6265.0,266.0,237.0
16:42:51,6265.0,266.0,237.0
16:42:51,6213.0,267.0,236.0
16:42:51,6213.0,267.0,236.0
16:42:51,6213.0,267.0,236.0
16:42:51,6213.0,267.0,236.0
16:42:51,6074.0,267.0,236.0
16:42:51,6074.0,267.0,236.0
16:42:51,6074.0,267.0,236.0
16:42:51,6074.0,267.0,236.0
16:42:51,6239.0,266.0,237.0
16:42:51,6239.0,266.0,237.0
16:42:51,6239.0,266.0,237.0
16:42:51,6239.0,266.0,237.0
16:42:51,6222.0,266.0,237.0
16:42:51,6222.0,266.0,237.0
16:42:51,6222.0,266.0,237.0
16:42:51,6222.0,266.0,237.0
16:42:51,6233.0,266.0,235.0
16:42:51,6233.0,266.0,235.0
16:42:51,6233.0,266.0,235.0
16:42:51,6233.0,266.0,235.0
16:42:51,6264.0,267.0,236.0
16:42:51,6264.0,267.0,236.0
16:42:51,6264.0,267.0,236.0
16:42:51,6264.0,267.0,236.0
16:42:51,6155.0,267.0,236.0
16:42:51,6155.0,267.0,236.0
16:42:51,6155.0,267.0,236.0
16:42:51,6155.0,267.0,236.0
16:42:51,6260.0,266.0,235.0
16:42:51,6260.0,266.0,235.0
16:42:51,6260.0,266.0,235.0
16:42:51,6260.0,266.0,235.0
16:42:51,6134.0,266.0,236.0
16:42:51,6134.0,266.0,236.0
16:42:51,6134.0,266.0,236.0
16:42:51,6134.0,266.0,236.0
16:42:51,6259.0,265.0,235.0
16:42:51,6259.0,265.0,235.0
16:42:51,6259.0,265.0,235.0
16:42:51,6259.0,265.0,235.0
16:42:51,6097.0,265.0,237.0
16:42:51,6097.0,265.0,237.0
16:42:51,6097.0,265.0,237.0
16:42:51,6097.0,265.0,237.0
16:42:51,6134.0,265.0,235.0
16:42:51,6134.0,265.0,235.0
16:42:51,6134.0,265.0,235.0
16:42:51,6134.0,265.0,235.0
16:42:51,6226.0,266.0,236.0
16:42:51,6226.0,266.0,236.0
16:42:51,6226.0,266.0,236.0
16:42:51,6226.0,266.0,236.0
16:42:51,5978.0,265.0,235.0
16:42:51,5978.0,265.0,235.0
16:42:51,5978.0,265.0,235.0
16:42:51,5978.0,265.0,235.0
16:42:51,6081.0,264.0,235.0
16:42:51,6081.0,264.0,235.0
16:42:51,6081.0,264.0,235.0
16:42:51,6081.0,264.0,235.0
16:42:51,5975.0,265.0,235.0
16:42:51,5975.0,265.0,235.0
16:42:51,5975.0,265.0,235.0
16:42:51,5975.0,265.0,235.0
16:42:51,6012.0,265.0,235.0
16:42:51,6012.0,265.0,235.0
16:42:51,6012.0,265.0,235.0
16:42:51,6012.0,265.0,235.0
16:42:51,6206.0,264.0,235.0
16:42:51,6206.0,264.0,235.0
16:42:51,6206.0,264.0,235.0
16:42:51,6206.0,264.0,235.0
16:42:51,6061.0,265.0,236.0
16:42:51,6061.0,265.0,236.0
16:42:51,6061.0,265.0,236.0
16:42:52,6061.0,265.0,236.0
16:42:52,6180.0,265.0,235.0
16:42:52,6180.0,265.0,235.0
16:42:52,6180.0,265.0,235.0
16:42:52,6180.0,265.0,235.0
16:42:52,6061.0,265.0,235.0
16:42:52,6061.0,265.0,235.0
16:42:52,6061.0,265.0,235.0
16:42:52,6061.0,265.0,235.0
16:42:52,6238.0,265.0,233.0
16:42:52,6238.0,265.0,233.0
16:42:52,6238.0,265.0,233.0
16:42:52,6238.0,265.0,233.0
16:42:52,6142.0,265.0,235.0
16:42:52,6142.0,265.0,235.0
16:42:52,6142.0,265.0,235.0
16:42:52,6142.0,265.0,235.0
16:42:52,5948.0,265.0,234.0
16:42:52,5948.0,265.0,234.0
16:42:52,5948.0,265.0,234.0
16:42:52,5948.0,265.0,234.0
16:42:52,6146.0,263.0,235.0
16:42:52,6146.0,263.0,235.0
16:42:52,6146.0,263.0,235.0
16:42:52,6146.0,263.0,235.0
16:42:52,6127.0,264.0,235.0
16:42:52,6127.0,264.0,235.0
16:42:52,6127.0,264.0,235.0
16:42:52,6127.0,264.0,235.0
16:42:52,6500.0,264.0,235.0
16:42:52,6500.0,264.0,235.0
16:42:52,6500.0,264.0,235.0
16:42:52,6500.0,264.0,235.0
16:42:52,7153.0,264.0,234.0
16:42:52,7153.0,264.0,234.0
16:42:52,7153.0,264.0,234.0
16:42:52,7153.0,264.0,234.0
16:42:52,5863.0,265.0,235.0
16:42:52,5863.0,265.0,235.0
16:42:52,5863.0,265.0,235.0
16:42:52,5863.0,265.0,235.0
16:42:52,5731.0,263.0,236.0
16:42:52,5731.0,263.0,236.0
16:42:52,5731.0,263.0,236.0
16:42:52,5731.0,263.0,236.0
16:42:52,5922.0,264.0,237.0
16:42:52,5922.0,264.0,237.0
16:42:52,5922.0,264.0,237.0
16:42:52,5922.0,264.0,237.0
16:42:52,5862.0,265.0,234.0
16:42:52,5862.0,265.0,234.0
16:42:52,5862.0,265.0,234.0
16:42:52,5862.0,265.0,234.0
16:42:52,5981.0,264.0,235.0
16:42:52,5981.0,264.0,235.0
16:42:52,5981.0,264.0,235.0
16:42:52,5981.0,264.0,235.0
16:42:52,6013.0,264.0,236.0
16:42:52,6013.0,264.0,236.0
16:42:52,6013.0,264.0,236.0
16:42:52,6013.0,264.0,236.0
16:42:52,6093.0,265.0,234.0
16:42:52,6093.0,265.0,234.0
16:42:52,6093.0,265.0,234.0
16:42:52,6093.0,265.0,234.0
16:42:52,5891.0,266.0,235.0
16:42:52,5891.0,266.0,235.0
16:42:52,5891.0,266.0,235.0
16:42:52,5891.0,266.0,235.0
16:42:52,5921.0,265.0,236.0
16:42:52,5921.0,265.0,236.0
16:42:52,5921.0,265.0,236.0
16:42:52,5921.0,265.0,236.0
16:42:52,5782.0,266.0,236.0
16:42:52,5782.0,266.0,236.0
16:42:52,5782.0,266.0,236.0
16:42:52,5782.0,266.0,236.0
16:42:52,6057.0,265.0,236.0
16:42:52,6057.0,265.0,236.0
16:42:52,6057.0,265.0,236.0
16:42:52,6057.0,265.0,236.0
16:42:52,5950.0,266.0,235.0
16:42:52,5950.0,266.0,235.0
16:42:52,5950.0,266.0,235.0
16:42:52,5950.0,266.0,235.0
16:42:52,5787.0,264.0,235.0
16:42:52,5787.0,264.0,235.0
16:42:52,5787.0,264.0,235.0
16:42:52,5787.0,264.0,235.0
16:42:52,5783.0,266.0,236.0
16:42:52,5783.0,266.0,236.0
16:42:52,5783.0,266.0,236.0
16:42:52,5783.0,266.0,236.0
16:42:52,5745.0,265.0,236.0
16:42:52,5745.0,265.0,236.0
16:42:52,5745.0,265.0,236.0
16:42:52,5745.0,265.0,236.0
16:42:52,5958.0,266.0,235.0
16:42:52,5958.0,266.0,235.0
16:42:52,5958.0,266.0,235.0
16:42:52,5958.0,266.0,235.0
16:42:52,6077.0,266.0,236.0
16:42:52,6077.0,266.0,236.0
16:42:52,6077.0,266.0,236.0
16:42:52,6077.0,266.0,236.0
16:42:52,6037.0,266.0,237.0
16:42:52,6037.0,266.0,237.0
16:42:52,6037.0,266.0,237.0
16:42:52,6037.0,266.0,237.0
16:42:52,5983.0,266.0,237.0
16:42:52,5983.0,266.0,237.0
16:42:52,5983.0,266.0,237.0
16:42:52,5983.0,266.0,237.0
16:42:52,5943.0,266.0,236.0
16:42:52,5943.0,266.0,236.0
16:42:52,5943.0,266.0,236.0
16:42:52,5943.0,266.0,236.0
16:42:52,6036.0,266.0,236.0
16:42:52,6036.0,266.0,236.0
16:42:52,6036.0,266.0,236.0
16:42:52,6036.0,266.0,236.0
16:42:52,6108.0,266.0,236.0
16:42:52,6108.0,266.0,236.0
16:42:52,6108.0,266.0,236.0
16:42:52,6108.0,266.0,236.0
16:42:52,5784.0,266.0,236.0
16:42:52,5784.0,266.0,236.0
16:42:52,5784.0,266.0,236.0
16:42:52,5784.0,266.0,236.0
16:42:52,6008.0,266.0,237.0
16:42:52,6008.0,266.0,237.0
16:42:52,6008.0,266.0,237.0
16:42:52,6008.0,266.0,237.0
16:42:52,5902.0,266.0,238.0
16:42:52,5902.0,266.0,238.0
16:42:52,5902.0,266.0,238.0
16:42:52,5902.0,266.0,238.0
16:42:52,5998.0,266.0,236.0
16:42:52,5998.0,266.0,236.0
16:42:52,5998.0,266.0,236.0
16:42:52,5998.0,266.0,236.0
16:42:52,5909.0,268.0,237.0
16:42:52,5909.0,268.0,237.0
16:42:52,5909.0,268.0,237.0
16:42:52,5909.0,268.0,237.0
16:42:52,5934.0,266.0,236.0
16:42:52,5934.0,266.0,236.0
16:42:52,5934.0,266.0,236.0
16:42:52,5934.0,266.0,236.0
16:42:52,5810.0,266.0,236.0
16:42:52,5810.0,266.0,236.0
16:42:52,5810.0,266.0,236.0
16:42:52,5810.0,266.0,236.0
16:42:52,5963.0,267.0,238.0
16:42:52,5963.0,267.0,238.0
16:42:52,5963.0,267.0,238.0
16:42:52,5963.0,267.0,238.0
16:42:52,5982.0,267.0,236.0
16:42:52,5982.0,267.0,236.0
16:42:52,5982.0,267.0,236.0
16:42:52,5982.0,267.0,236.0
16:42:52,6233.0,266.0,237.0
16:42:52,6233.0,266.0,237.0
16:42:52,6233.0,266.0,237.0
16:42:52,6233.0,266.0,237.0
16:42:52,6321.0,268.0,237.0
16:42:52,6321.0,268.0,237.0
16:42:52,6321.0,268.0,237.0
16:42:52,6321.0,268.0,237.0
16:42:52,6118.0,266.0,238.0
16:42:52,6118.0,266.0,238.0
16:42:52,6118.0,266.0,238.0
16:42:52,6118.0,266.0,238.0
16:42:52,6238.0,266.0,238.0
16:42:52,6238.0,266.0,238.0
16:42:52,6238.0,266.0,238.0
16:42:52,6238.0,266.0,238.0
16:42:52,6057.0,268.0,237.0
16:42:52,6057.0,268.0,237.0
16:42:52,6057.0,268.0,237.0
16:42:52,6057.0,268.0,237.0
16:42:52,5861.0,267.0,237.0
16:42:52,5861.0,267.0,237.0
16:42:52,5861.0,267.0,237.0
16:42:52,5861.0,267.0,237.0
16:42:52,6192.0,267.0,237.0
16:42:52,6192.0,267.0,237.0
16:42:52,6192.0,267.0,237.0
16:42:52,6192.0,267.0,237.0
16:42:52,7066.0,268.0,238.0
16:42:52,7066.0,268.0,238.0
16:42:52,7066.0,268.0,238.0
16:42:52,7066.0,268.0,238.0
16:42:52,6557.0,268.0,238.0
16:42:52,6557.0,268.0,238.0
16:42:52,6557.0,268.0,238.0
16:42:52,6557.0,268.0,238.0
16:42:52,6271.0,267.0,238.0
16:42:52,6271.0,267.0,238.0
16:42:52,6271.0,267.0,238.0
16:42:52,6271.0,267.0,238.0
16:42:53,6224.0,269.0,239.0
16:42:53,6224.0,269.0,239.0
16:42:53,6224.0,269.0,239.0
16:42:53,6224.0,269.0,239.0
16:42:53,6024.0,268.0,239.0
16:42:53,6024.0,268.0,239.0
16:42:53,6024.0,268.0,239.0
16:42:53,6024.0,268.0,239.0
16:42:53,5948.0,266.0,238.0
16:42:53,5948.0,266.0,238.0
16:42:53,5948.0,266.0,238.0
16:42:53,5948.0,266.0,238.0
16:42:53,5836.0,268.0,239.0
16:42:53,5836.0,268.0,239.0
16:42:53,5836.0,268.0,239.0
16:42:53,5836.0,268.0,239.0
16:42:53,5808.0,267.0,238.0
16:42:53,5808.0,267.0,238.0
16:42:53,5808.0,267.0,238.0
16:42:53,5808.0,267.0,238.0
16:42:53,5603.0,267.0,237.0
16:42:53,5603.0,267.0,237.0
16:42:53,5603.0,267.0,237.0
16:42:53,5603.0,267.0,237.0
16:42:53,5578.0,268.0,238.0
16:42:53,5578.0,268.0,238.0
16:42:53,5578.0,268.0,238.0
16:42:53,5578.0,268.0,238.0
16:42:53,5553.0,267.0,237.0
16:42:53,5553.0,267.0,237.0
16:42:53,5553.0,267.0,237.0
16:42:53,5553.0,267.0,237.0
16:42:53,5523.0,268.0,237.0
16:42:53,5523.0,268.0,237.0
16:42:53,5523.0,268.0,237.0
16:42:53,5523.0,268.0,237.0
16:42:53,5797.0,268.0,237.0
16:42:53,5797.0,268.0,237.0
16:42:53,5797.0,268.0,237.0
16:42:53,5797.0,268.0,237.0
16:42:53,6315.0,268.0,237.0
16:42:53,6315.0,268.0,237.0
16:42:53,6315.0,268.0,237.0
16:42:53,6315.0,268.0,237.0
16:42:53,6506.0,266.0,237.0
16:42:53,6506.0,266.0,237.0
16:42:53,6506.0,266.0,237.0
16:42:53,6506.0,266.0,237.0
16:42:53,6409.0,267.0,237.0
16:42:53,6409.0,267.0,237.0
16:42:53,6409.0,267.0,237.0
16:42:53,6409.0,267.0,237.0
16:42:53,6471.0,267.0,237.0
16:42:53,6471.0,267.0,237.0
16:42:53,6471.0,267.0,237.0
16:42:53,6471.0,267.0,237.0
16:42:53,6538.0,268.0,237.0
16:42:53,6538.0,268.0,237.0
16:42:53,6538.0,268.0,237.0
16:42:53,6538.0,268.0,237.0
16:42:53,6440.0,266.0,237.0
16:42:53,6440.0,266.0,237.0
16:42:53,6440.0,266.0,237.0
16:42:53,6440.0,266.0,237.0
16:42:53,6336.0,267.0,237.0
16:42:53,6336.0,267.0,237.0
16:42:53,6336.0,267.0,237.0
16:42:53,6336.0,267.0,237.0
16:42:53,6358.0,267.0,236.0
16:42:53,6358.0,267.0,236.0
16:42:53,6358.0,267.0,236.0
16:42:53,6358.0,267.0,236.0
16:42:53,6262.0,265.0,235.0
16:42:53,6262.0,265.0,235.0
16:42:53,6262.0,265.0,235.0
16:42:53,6262.0,265.0,235.0
16:42:53,6104.0,267.0,237.0
16:42:53,6104.0,267.0,237.0
16:42:53,6104.0,267.0,237.0
16:42:53,6104.0,267.0,237.0
16:42:53,6367.0,267.0,235.0
16:42:53,6367.0,267.0,235.0
16:42:53,6367.0,267.0,235.0
16:42:53,6367.0,267.0,235.0
16:42:53,6343.0,265.0,235.0
16:42:53,6343.0,265.0,235.0
16:42:53,6343.0,265.0,235.0
16:42:53,6343.0,265.0,235.0
16:42:53,6325.0,267.0,235.0
16:42:53,6325.0,267.0,235.0
16:42:53,6325.0,267.0,235.0
16:42:53,6325.0,267.0,235.0
16:42:53,6206.0,266.0,235.0
16:42:53,6206.0,266.0,235.0
16:42:53,6206.0,266.0,235.0
16:42:53,6206.0,266.0,235.0
16:42:53,6332.0,265.0,236.0
16:42:53,6332.0,265.0,236.0
16:42:53,6332.0,265.0,236.0
16:42:53,6332.0,265.0,236.0
16:42:53,6450.0,266.0,236.0
16:42:53,6450.0,266.0,236.0
16:42:53,6450.0,266.0,236.0
16:42:53,6450.0,266.0,236.0
16:42:53,6275.0,265.0,235.0
16:42:53,6275.0,265.0,235.0
16:42:53,6275.0,265.0,235.0
16:42:53,6275.0,265.0,235.0
16:42:53,6393.0,266.0,235.0
16:42:53,6393.0,266.0,235.0
16:42:53,6393.0,266.0,235.0
16:42:53,6393.0,266.0,235.0
16:42:53,6502.0,267.0,235.0
16:42:53,6502.0,267.0,235.0
16:42:53,6502.0,267.0,235.0
16:42:53,6502.0,267.0,235.0
16:42:53,6448.0,265.0,236.0
16:42:53,6448.0,265.0,236.0
16:42:53,6448.0,265.0,236.0
16:42:53,6448.0,265.0,236.0
16:42:53,6234.0,265.0,236.0
16:42:53,6234.0,265.0,236.0
16:42:53,6234.0,265.0,236.0
16:42:53,6234.0,265.0,236.0
16:42:53,6211.0,264.0,235.0
16:42:53,6211.0,264.0,235.0
16:42:53,6211.0,264.0,235.0
16:42:53,6211.0,264.0,235.0
16:42:53,6135.0,266.0,235.0
16:42:53,6135.0,266.0,235.0
16:42:53,6135.0,266.0,235.0
16:42:53,6135.0,266.0,235.0
16:42:53,6354.0,265.0,235.0
16:42:53,6354.0,265.0,235.0
16:42:53,6354.0,265.0,235.0
16:42:53,6354.0,265.0,235.0
16:42:53,7768.0,265.0,236.0
16:42:53,7768.0,265.0,236.0
16:42:53,7768.0,265.0,236.0
16:42:53,7768.0,265.0,236.0
16:42:53,6223.0,265.0,234.0
16:42:53,6223.0,265.0,234.0
16:42:53,6223.0,265.0,234.0
16:42:53,6223.0,265.0,234.0
16:42:53,6481.0,264.0,235.0
16:42:53,6481.0,264.0,235.0
16:42:53,6481.0,264.0,235.0
16:42:53,6481.0,264.0,235.0
16:42:53,6345.0,265.0,235.0
16:42:53,6345.0,265.0,235.0
16:42:53,6345.0,265.0,235.0
16:42:53,6345.0,265.0,235.0
16:42:53,6388.0,266.0,234.0
16:42:53,6388.0,266.0,234.0
16:42:53,6388.0,266.0,234.0
16:42:53,6388.0,266.0,234.0
16:42:53,6350.0,265.0,236.0
16:42:53,6350.0,265.0,236.0
16:42:53,6350.0,265.0,236.0
16:42:53,6350.0,265.0,236.0
