Time (s),ecg
0.0,2028.000000000003
0.004,2038.0796708408889
0.008,2017.9918568891521
0.012,2034.2014168577625
0.016,2027.2524896529087
0.02,2050.0001122766876
0.024,2054.8063691915613
0.028,2043.5184299094733
0.032,2055.7562104955528
0.036,2046.655456248706
0.04,2049.0000959346467
0.044,2051.8222385030767
0.048,2044.3290500416886
0.052,2054.2294211345447
0.056,2044.2157277062413
0.06,2030.9999624559646
0.064,2031.2522674768181
0.068,2030.3063315974882
0.072,2031.3724677179052
0.076,2031.844205077451
0.08,2043.0001858143228
0.084,2044.9728944445749
0.088,2040.3349494987651
0.092,2045.1499434763068
0.096,2042.563209099265
0.1,2053.0003004892515
0.104,2056.214025901302
0.108,2047.2356686527767
0.112,2060.7198916945026
0.116,2043.648730047091
0.12,2002.999422128075
0.124,2000.3570100138602
0.128,2005.8253406082295
0.132,2000.3954847289676
0.136,2005.6144482657542
0.14,2017.0002123284037
0.144,2018.1196802547743
0.148,2015.210002345537
0.152,2019.5081359922567
0.156,2013.4568731383533
0.16,1993.9995238596534
0.164,1991.6704977445029
0.168,1997.6451448820046
0.172,1989.4176740424043
0.176,1999.174875377525
0.18,2018.0002678743224
0.184,2017.7742509286343
0.188,2020.6110264268593
0.192,2011.844972681461
0.196,2028.6282758634711
0.2,2089.001768859809
0.204,2094.857010890121
0.208,2082.216259646526
0.212,2094.215199296218
0.216,2086.9953748526345
0.22,2098.0008364593014
0.224,2101.899557072118
0.228,2091.87324340909
0.232,2104.35050956295
0.236,2093.609336499452
0.24,2096.000872012836
0.244,2101.3855379493807
0.248,2084.343469422814
0.252,2114.1487722746556
0.256,2070.959248457874
0.26,1948.9958608930974
0.264,1939.606149363174
0.268,1958.6669621344781
0.272,1942.7741872813801
0.276,1949.6754706021957
0.28,1922.9980969437745
0.284,1916.769070879989
0.288,1932.0337079715648
0.292,1914.6750547660674
0.296,1926.8630241688027
0.3,1905.9976009959598
0.304,1896.8136812150315
0.308,1921.743877153746
0.312,1889.6064820917575
0.316,1912.683481788113
0.32,1826.9901392670968
0.324,1784.7850624446162
0.328,1925.2364620286207
0.332,1654.3481768646675
0.336,2101.730661001738
0.34,3677.0822250478905
0.344,3859.0884452149876
0.348,3408.537461354915
0.352,3999.835418486648
0.356,3306.7770065953996
0.36,1746.9351930352705
0.364,1652.9674122139672
0.368,1834.530937666748
0.372,1692.418240933805
0.376,1762.3453676667075
0.38,1652.9878429977948
0.384,1623.9079100776298
0.388,1695.645649131174
0.392,1607.6778191930266
0.396,1694.817020411996
0.4,1820.0031604716069
0.404,1819.3288856614752
0.408,1826.9271330752576
0.412,1808.4405369646497
0.416,1833.5164969771174
0.42,1881.0015142867544
0.424,1880.8877554945627
0.428,1884.5062803778308
0.432,1874.0271570996404
0.436,1890.7167942747808
0.44,1934.0021597950056
0.444,1936.1449601819133
0.448,1932.9441507286474
0.452,1933.270230573849
0.456,1936.2754181242265
0.46,1948.0005658754
0.464,1948.0461386397174
0.468,1949.6620980561927
0.472,1943.5931359180213
0.476,1955.986802877122
0.48,2003.003415017368
0.484,2007.9810880979346
0.488,1996.5958398742928
0.492,2009.194791621115
0.496,1997.9024616365825
0.5,1985.9999224038465
0.504,1986.7975717672398
0.508,1984.1949608921734
0.512,1988.0688647370068
0.516,1984.6492636589649
0.52,1987.000805322583
0.524,1989.0400707194626
0.528,1983.0457498161127
0.532,1992.3107881995554
0.536,1981.0434216768926
0.54,1959.9991184897917
0.544,1960.0635862653544
0.548,1958.2358341311228
0.552,1963.6256038438064
0.556,1954.893004921202
0.56,1932.9987519267588
0.564,1932.4834944013026
0.568,1931.9110054641917
0.572,1936.4674905941322
0.576,1926.850756383165
0.58,1892.9972436661837
0.584,1890.0495993736179
0.588,1896.228625509234
0.592,1890.4537440722972
0.596,1894.6642545812938
0.6,1898.000068354424
0.604,1898.0942894203554
0.608,1897.5246452360877
0.612,1899.1024347700557
0.616,1896.2930974116236
0.62,1888.9996049960143
0.624,1889.1412216947235
0.628,1887.6248414310012
0.632,1892.1908747589903
0.636,1883.6662344862355
0.64,1854.9974816159577
0.644,1852.7056524755105
0.648,1857.0484321126405
0.652,1854.4151722743666
0.656,1853.4193105543745
0.66,1836.9979762217795
0.664,1834.6135807031717
0.668,1840.1617607600788
0.672,1834.035496585769
0.676,1839.2031749192536
0.68,1842.9998517109937
0.684,1842.479334635356
0.688,1843.8661414880762
0.692,1842.2492144106807
0.696,1843.2399793120392
0.7,1840.9995324718136
0.704,1840.3832496205998
0.708,1841.850128066649
0.712,1840.2370624641492
0.716,1841.5368356907964
0.72,1843.0001329417037
0.724,1843.318190406274
0.728,1841.941091323385
0.732,1845.3132176690783
0.736,1838.9210269430444
0.74,1814.997331233199
0.744,1812.522647901963
0.748,1818.0324704026905
0.752,1812.3469341763755
0.756,1816.7884822266126
0.76,1818.9997384643639
0.764,1818.5082114961856
0.768,1819.6031756095256
0.772,1818.8581348954765
0.776,1818.2358015223663
0.78,1810.9990246953414
0.784,1810.2522963710192
0.788,1811.2828663285413
0.792,1812.2777282520683
0.796,1807.0972827543444
0.8,1777.9959550194376
0.804,1774.0209723664054
0.808,1783.5809485152452
0.812,1772.275532562284
0.816,1782.8485719257587
0.82,1794.0000428192477
0.824,1793.1164065642681
0.828,1795.8782405680274
0.832,1792.038094626925
0.836,1794.886809675312
0.84,1788.9982185766587
0.844,1786.64717428261
0.848,1792.944713650475
0.852,1784.6937441896127
0.856,1792.1671977796511
0.86,1791.9981207682174
0.864,1788.7045923901237
0.868,1798.834265601664
0.872,1782.2317575721959
0.876,1803.8282682400088
0.88,1851.0040837988997
0.884,1852.252813082834
0.888,1852.3611622203437
0.892,1845.850213939455
0.896,1860.3730657234223
0.9,1913.0068134921387
0.904,1917.966970438585
0.908,1906.9264813061043
0.912,1918.877005018361
0.916,1907.6213849806204
0.92,1889.9986727995342
0.924,1889.7597055409815
0.928,1889.0699870764881
0.932,1893.0774346994854
0.936,1883.4826537187835
0.94,1838.992871077282
0.944,1832.9123302599598
0.948,1847.8185281488188
0.952,1829.9211281237801
0.956,1845.7252937199337
0.96,1847.996298285669
0.964,1841.9384040626767
0.968,1860.5034378101104
0.972,1830.9342183638892
0.976,1866.2414765655324
0.98,1917.0006421786907
0.984,1910.9504485885423
0.988,1935.492409284947
0.992,1885.2721924858258
0.996,1958.9601713904642
1.0,2121.012287691075
1.004,2115.1436877249234
1.008,2160.1388446190685
1.012,2025.8847596171179
1.016,2299.478811133099
1.02,3435.190545765584
1.024,3585.068354426626
1.028,3200.5535459482435
1.032,3732.353771462607
1.036,3075.9093355106447
1.04,1476.7956243773647
1.044,1363.5667279249217
1.048,1602.0441569499144
1.052,1367.5898796700621
1.056,1565.9887057808612
1.06,1816.0169438878681
1.064,1817.410370023494
1.068,1821.3446295703777
1.072,1807.1093927923391
1.076,1824.7441145386624
1.08,1846.0001347004084
1.084,1844.2220792556525
1.088,1850.017906127839
1.092,1840.9876173622154
1.096,1850.7249648607146
1.1,1863.0003550509236
1.104,1862.3142142593488
1.108,1864.724176635679
1.112,1860.807235813404
1.116,1865.0333024093156
1.12,1870.0000840082769
1.124,1869.7085078924486
1.128,1870.485159571259
1.132,1869.9829104632886
1.136,1868.616267048495
1.14,1852.9961639146452
1.144,1849.6109085930252
1.148,1859.347304494774
1.152,1843.604849065948
1.156,1866.0069812281163
1.16,1932.0106356170522
1.164,1938.1524343730528
1.168,1923.9686154049768
1.172,1940.466934200601
1.176,1923.557550144616
1.18,1892.9964708266577
1.184,1891.667057067374
1.188,1894.3737429096157
1.192,1891.0887471823046
1.196,1896.6152103959005
1.2,1923.0058207913996
1.204,1927.3367128231375
1.208,1915.8213329063392
1.212,1931.983841749863
1.216,1913.2627617024038
1.22,1879.9970951772054
1.224,1880.4730771095599
1.228,1876.1401599662997
1.232,1887.9494696558233
1.236,1867.9671165507716
1.24,1808.9907982733387
1.244,1805.2016423538564
1.248,1811.5938807792097
1.252,1809.5802893292296
1.256,1804.4075668049636
1.26,1769.9929113478693
1.264,1766.1152612050344
1.268,1774.5656748088165
1.272,1766.2535445654037
1.276,1772.4394488066928
1.28,1777.000164649736
1.284,1777.2538707833564
1.288,1775.6142335568277
1.292,1780.4916445822423
1.296,1770.6941169364413
1.3,1734.9934123242267
1.304,1732.0123265846307
1.308,1737.4976633507627
1.312,1734.9250087990122
1.316,1731.3935344011388
1.32,1699.9926858601027
1.324,1695.9414056984986
1.328,1704.7642625285214
1.332,1696.8946237542877
1.336,1699.513463543404
1.34,1675.9924302103066
1.344,1670.620263645665
1.348,1684.736569913625
1.352,1665.4653239310146
1.356,1687.3355936652797
1.36,1730.0057975360023
1.364,1731.8663626335435
1.368,1728.1998840766817
1.372,1732.3970802889323
1.376,1725.394696432048
1.38,1690.991132015615
1.384,1685.124073027534
1.388,1701.106918591848
1.392,1677.4145992483097
1.396,1707.786043550094
1.4,1782.0124457322815
1.404,1786.7820793041067
1.408,1777.4011395887906
1.412,1785.1137368053373
1.416,1780.531403637019
1.42,1781.0009589693143
1.424,1781.5889754075945
1.428,1780.4340165183833
1.432,1780.988064012316
1.436,1782.0513519541062
1.44,1792.0027724235058
1.444,1793.707384688988
1.448,1789.1795911029783
1.452,1795.6808627302057
1.456,1787.5275933206838
1.46,1767.9966357214098
1.464,1766.8096317681222
1.468,1769.0157713205847
1.472,1767.543472469003
1.476,1767.881879333376
1.48,1765.9996521512726
1.484,1766.092272290388
1.488,1765.179832336711
1.492,1768.0563964334685
1.496,1762.297999125548
1.5,1740.9953402816457
1.504,1739.0458465810598
1.508,1742.9058650167037
1.512,1740.3833197849174
1.516,1739.2679996380757
1.52,1718.9936951911154
1.524,1715.2647007899398
1.528,1725.041610794034
1.532,1711.529486160181
1.536,1727.3641746033702
1.54,1760.0051140301039
1.544,1761.2626217585644
1.548,1759.6952850075854
1.552,1758.8079125961676
1.556,1762.825141872519
1.56,1780.0039802142633
1.564,1781.6338251780148
1.568,1778.3327349174424
1.572,1780.6315830568715
1.576,1781.584282473939
1.58,1803.0075833221115
1.584,1807.9484136224687
1.588,1793.620899593579
1.592,1816.7597321680662
1.596,1784.7200130148206
1.6,1699.983434420758
1.604,1694.8445319677423
1.608,1702.9693619136501
1.612,1702.895976189892
1.616,1688.4681500447427
1.62,1600.975515130078
1.624,1589.3452474206279
1.628,1616.7954447088441
1.632,1585.993782676307
1.636,1611.1015714775401
1.64,1611.9904188892715
1.644,1603.9428205542574
1.648,1626.382800087989
1.652,1596.8343391722779
1.656,1618.7521404963493
1.66,1549.9576889531943
1.664,1515.3193630082917
1.668,1629.644136412501
1.672,1412.040781309545
1.676,1766.7567478637454
1.68,2993.3133013903303
1.684,3131.8499047045466
1.688,2790.2677894003746
1.692,3234.1887008198723
1.696,2719.8361014602224
1.7,1591.784345264169
1.704,1529.3355012140269
1.708,1643.0482201995517
1.712,1573.234706102972
1.716,1571.703472215393
1.72,1322.917867286769
1.724,1284.9342250188902
1.728,1376.3631113973572
1.732,1266.72326564927
1.736,1375.7993844112746
1.74,1541.020625343358
1.744,1542.0018035718554
1.748,1546.6484215747125
1.752,1530.404831028271
1.756,1553.190211434323
1.76,1591.0031600359985
1.764,1589.300502986571
1.768,1596.8657638363495
1.772,1581.7381278721089
1.776,1602.0137472517665
1.78,1642.0057707086642
1.784,1642.148735194959
1.788,1644.4840326318174
1.792,1636.9984031937872
1.796,1648.4409441727614
1.8,1672.0031700150166
1.804,1671.692513648761
1.808,1674.5589740600747
1.812,1667.1939768329485
1.816,1678.2600630161344
1.82,1702.003462850094
1.824,1701.766944882317
1.828,1704.827599922065
1.832,1695.896667235415
1.836,1711.5239111711724
1.84,1760.0118194351637
1.844,1763.7400674099251
1.848,1756.2179624980295
1.852,1762.590213012728
1.856,1758.8718811676836
1.86,1760.0012038378413
1.864,1760.4433412629783
1.868,1759.9104890028364
1.872,1758.9782912801138
1.876,1762.8582315820038
1.88,1784.007025862876
1.884,1787.1349915194214
1.888,1779.0066988347796
1.892,1790.3033624438242
1.896,1776.6648252791947
1.9,1746.9941366504918
1.904,1745.949090212288
1.908,1746.5341145109098
1.912,1750.177162798397
1.916,1740.1910427145367
1.92,1696.9868691172694
1.924,1692.0345641735819
1.928,1703.5598400344836
1.932,1690.561290090653
1.936,1702.283992852724
1.94,1713.999970437995
1.944,1712.9785598603562
1.948,1716.2349612091825
1.952,1711.3163788018708
1.956,1716.2234580310123
1.96,1718.9986666240209
1.964,1717.7694146699205
1.968,1721.42543157732
1.972,1715.971116075399
1.976,1721.9549339596917
1.98,1730.0005198975398
1.984,1729.5938323616258
1.988,1731.021734079141
1.992,1728.9315968671478
1.996,1730.310952074763
2.0,1724.9967834946222
2.004,1723.3060371580275
2.008,1727.7697310522112
2.012,1722.0100309016548
2.016,1727.2826457099695
2.02,1728.9980203479531
2.024,1727.4629540628925
2.028,1731.9230577956819
2.032,1725.459153507063
2.036,1732.2310447483026
2.04,1738.9994237971293
2.044,1737.9091978820422
2.048,1741.347021245584
2.052,1736.1578882978413
2.056,1741.2403271347312
2.06,1741.9973152123093
2.064,1740.0089451668189
2.068,1745.8952107872733
2.072,1737.0825418898453
2.076,1746.7031096473886
2.08,1756.9990943742177
2.084,1755.0914889725477
2.088,1761.726463109675
2.092,1749.8297781715053
2.096,1765.787430531402
2.1,1800.0066506361538
2.104,1800.578815725428
2.108,1801.6341789633402
2.112,1795.5480180057332
2.116,1807.169421290091
2.12,1843.009713097832
2.124,1845.4786387740048
2.128,1840.7548825300114
2.132,1844.3630855439715
2.136,1842.299540398845
2.14,1839.9990547384457
2.144,1839.392511112211
2.148,1841.2835809544047
2.152,1838.3823216533826
2.156,1841.177706297421
2.16,1838.9967159781593
2.164,1836.8139772700697
2.168,1843.6184977013322
2.172,1832.2402088086526
2.176,1847.3401716796636
2.18,1881.0073303719682
2.184,1881.9800904037497
2.188,1881.6479422192178
2.192,1878.2804150636496
2.196,1885.353411768377
2.2,1904.0038067638518
2.204,1904.0286702375677
2.208,1906.018454243854
2.212,1899.2853404919138
2.216,1911.379739962752
2.22,1947.0094869674108
2.224,1948.799691431885
2.228,1946.8615113885776
2.232,1943.9069149494137
2.236,1954.2328404486946
2.24,2000.0159018262723
2.244,2004.9155068829841
2.248,1993.9595026442105
2.252,2005.2451298124997
2.256,1996.839137505012
2.26,1999.0056125760675
2.264,2002.4435778248394
2.268,1991.7136165870277
2.272,2010.446290870397
2.276,1982.6976185252438
2.28,1899.9742844761322
2.284,1892.9947543064234
2.288,1907.4783961705036
2.292,1895.491094283723
2.296,1898.771498014256
2.3,1859.9791462880687
2.304,1851.5627189024758
2.308,1872.9649953791832
2.312,1846.59207628101
2.316,1869.3200026293591
2.32,1865.9838979031626
2.324,1856.3864235318856
2.328,1883.6527750438624
2.332,1846.9751119979057
2.336,1874.1055689792981
2.34,1775.916461947348
2.344,1727.0652479008454
2.348,1889.6537204486428
2.352,1577.1827938972
2.356,2090.830484749675
2.36,3881.645389223046
2.364,4085.590701742673
2.368,3580.169894939989
2.372,4242.600742142666
2.376,3464.6981628335916
2.38,1700.5093633431104
2.384,1590.2689505693634
2.388,1810.981230957233
2.392,1620.3181818888086
2.396,1747.029396281378
2.4,1776.9664293822175
2.404,1759.5585351688637
2.408,1804.28414663064
2.412,1749.0577957744931
2.416,1799.0882295404524
2.42,1837.9934559167198
2.424,1831.043380613254
2.428,1852.143018579358
2.432,1819.9825709983538
2.436,1856.496212777509
2.44,1914.0083437806247
2.444,1912.8376956496197
2.448,1919.6166480224404
2.452,1904.785606714775
2.456,1924.8626084442171
2.46,1962.0060941897684
2.464,1961.2047219980386
2.468,1966.5176766726051
2.472,1953.7558716005149
2.476,1972.9659753810652
2.48,2018.010970932703
2.484,2019.0257455537349
2.488,2019.7688787035058
2.492,2012.56955471932
2.496,2026.8590270992552
2.5,2070.0130658104754
2.504,2072.367865375941
2.508,2068.958803623406
2.512,2068.7041150150144
2.516,2073.3420632402917
2.52,2089.0033849550186
2.524,2088.4487227556974
2.528,2092.860638194528
2.532,2080.190793136449
2.536,2103.998495337041
2.54,2188.0310440251387
2.544,2196.1199233038174
2.548,2178.1856669053736
2.552,2196.771543870638
2.556,2181.5419932242444
2.56,2170.0014001700606
2.564,2171.567709349894
2.568,2166.9360867472456
2.572,2173.6938248570614
2.576,2166.471910070749
2.58,2156.9993157907875
2.584,2157.663305937312
2.588,2154.892970141656
2.592,2160.855243139555
2.596,2150.8932842109148
2.6,2115.985969385697
2.604,2111.8442981980133
2.608,2122.3365502715264
2.612,2108.1914515821986
2.616,2124.9079445517186
2.62,2160.00923321876
2.624,2161.1038288164837
2.628,2160.642365672957
2.632,2156.5893423140756
2.636,2166.703941337999
2.64,2206.015372605557
2.644,2209.8882414028426
2.648,2201.276608163402
2.652,2210.361401652536
2.656,2202.3253250525936
2.66,2190.9973568309306
2.664,2190.426612624166
2.668,2192.111092309372
2.672,2188.949058607062
2.676,2194.3189142076385
2.68,2212.006439388138
2.684,2213.335605095863
2.688,2211.006471575667
2.692,2211.820144788879
2.696,2213.7665907593027
2.7,2227.00567068048
2.704,2228.262957615558
2.708,2226.1179667006213
2.712,2226.3866924000267
2.716,2229.9621020134105
2.72,2253.010845006865
2.724,2256.013817584069
2.728,2249.058981425005
2.732,2256.5731694981882
2.736,2250.688229449003
2.74,2250.002985114347
2.744,2251.408483130777
2.748,2247.7112860978327
2.752,2252.190618356417
2.756,2249.002758350335
2.76,2255.006196752669
2.764,2257.632189463619
2.768,2250.0794024462925
2.772,2261.611482632697
2.776,2247.330909550383
2.78,2217.992375499916
2.784,2217.380757248672
2.788,2216.9427862248363
2.792,2221.2717121141277
2.796,2212.585473330494
2.8,2185.991039335313
2.804,2184.7187189661868
2.808,2185.7446529441254
2.812,2189.3191495526235
2.816,2178.4731323905717
2.82,2129.9783028168986
2.824,2124.499927374548
2.828,2136.9493564334216
2.832,2123.9214266120716
2.836,2133.4708377651914
2.84,2128.990964065175
2.844,2125.053302708562
2.848,2136.283160016634
2.852,2119.5460085712907
2.856,2139.464017236832
2.86,2177.0090418554405
2.864,2177.40018811822
2.868,2178.824731573243
2.872,2172.747616547265
2.876,2183.0980338359614
2.88,2209.0074800586503
2.884,2209.5856750884886
2.888,2210.167794237886
2.892,2205.5083348336343
2.896,2214.626299694764
2.9,2241.008575391902
2.904,2241.908406223388
2.908,2242.0286586923617
2.912,2236.62225217172
2.916,2249.731633319271
2.92,2303.0240796993476
2.924,2308.9161645108657
2.928,2295.0735089163277
2.932,2311.2026732009017
2.936,2295.5052930440966
2.94,2274.9979471048337
2.944,2276.3874766588783
2.948,2270.0629324043502
2.952,2284.720530007984
2.956,2259.0600510396025
2.96,2168.960274832019
2.964,2159.6857943275927
2.968,2180.719057126988
2.972,2158.6540135395594
2.976,2175.014151375149
2.98,2167.9842015911645
2.984,2161.5836625043953
2.988,2178.85789185015
2.992,2156.7500121706503
2.996,2174.1176503749234
3.0,2146.9647753566383
3.004,2132.2053862398016
3.008,2175.5855715949738
3.012,2109.74856415328
3.016,2183.0090014514544
3.02,2237.9604561241676
3.024,2205.0905279198482
3.028,2329.9767052148864
3.032,2062.1250264633363
3.036,2531.1813681170806
3.04,4255.819532878297
3.044,4461.120897129422
3.048,3945.8908837480994
3.052,4633.06397475619
3.056,3812.7463294308445
3.06,1910.3083927442985
3.064,1786.6759344280147
3.068,2039.1948596302636
3.072,1810.4608337289412
3.076,1977.8538813935077
3.08,2087.98303641488
3.084,2074.521622144806
3.088,2112.1681652551365
3.092,2061.272539146462
3.096,2110.982189300145
3.1,2161.9989216526587
3.104,2156.933147200414
3.108,2173.444209534308
3.112,2146.9957678250657
3.116,2177.253816411895
3.12,2221.0052631559474
3.124,2218.6033098399216
3.128,2228.7008343778525
3.132,2208.5771247913112
3.136,2236.6825622011493
3.14,2300.019792347856
3.144,2301.8378763129763
3.148,2301.148658311191
3.152,2295.015298146744
3.156,2308.228869319009
3.16,2346.012848605045
3.164,2347.077097044811
3.168,2347.6729835601345
3.172,2340.2304193822465
3.176,2356.1353765509202
3.18,2409.021815335336
3.184,2412.42744293053
3.188,2407.2374170418725
3.192,2406.677131583745
3.196,2416.7988609463305
3.2,2471.0280782041923
3.204,2477.207889926038
3.208,2463.316092009763
3.212,2477.7554153372557
3.216,2466.3758214109926
3.22,2460.0022910182192
3.224,2461.0839477734444
3.228,2458.816685157997
3.232,2459.5948296622564
3.236,2463.8023685845674
3.24,2499.022083031748
3.244,2504.9945270500193
3.248,2489.3637887192453
3.252,2510.981877703896
3.256,2485.275843607984
3.26,2428.979537296373
3.264,2425.8846557961083
3.268,2431.775049341887
3.272,2427.275294789592
3.276,2429.6103942695518
3.28,2426.996880403953
3.284,2425.9109604724213
3.288,2429.2218848285024
3.292,2423.385973060297
3.296,2432.5101815613457
3.3,2463.0150493754827
3.304,2466.3098369295826
3.308,2458.3247462792388
3.312,2468.342183319787
3.316,2457.1822697836988
3.32,2433.991580997445
3.324,2432.7721180355425
3.328,2434.9680780426565
3.332,2433.8169314252027
3.336,2432.9228655697016
3.34,2420.991620955201
3.344,2418.5294418905683
3.348,2425.550089894229
3.352,2414.462131960371
3.356,2429.5671194034207
3.36,2469.0163059208576
3.364,2471.5741934361986
3.368,2466.8312813810294
3.372,2469.7489166639093
3.376,2469.911308435196
3.38,2479.004814064229
3.384,2479.5991203463764
3.388,2479.4641471932346
3.392,2476.186563751047
3.396,2485.3147982607575
3.4,2527.023183040014
3.404,2532.1681085239097
3.408,2519.708300050896
3.412,2535.0175127678517
3.416,2518.8347457772375
3.42,2488.989901246239
3.424,2487.689821474255
3.428,2490.1818688013404
3.432,2487.934643997356
3.436,2490.168870438305
3.44,2495.0016438893676
3.444,2494.995961756259
3.448,2495.8632718884605
3.452,2492.5171264451546
3.456,2499.9063926895174
3.46,2531.017321776151
3.464,2534.7749104892177
3.468,2525.6778505746092
3.472,2536.838706699134
3.476,2525.1049012215544
3.48,2503.992990812853
3.484,2503.1752673323695
3.488,2504.6620712373046
3.492,2503.4014430325233
3.496,2504.8426968296644
3.5,2510.0029363736116
3.504,2510.627618443241
3.508,2509.1779804685393
3.512,2510.77711179767
3.516,2509.3404691271094
3.52,2506.99894258987
3.524,2506.6880204214617
3.528,2507.742852357777
3.532,2505.710420694184
3.536,2508.7863176191095
3.54,2516.0021164987575
3.544,2515.8299312497966
3.548,2517.4150564193433
3.552,2512.748413015745
3.556,2521.4153002840544
3.56,2550.0136182366305
3.564,2552.0499562075365
3.568,2548.686791218076
3.572,2549.0737820179834
3.576,2554.1561296333675
3.58,2585.018390656966
3.584,2588.6297738339767
3.588,2580.824972755359
3.592,2587.6678457660228
3.596,2585.484018976936
3.6,2606.017524049881
3.604,2610.5459274520726
3.608,2598.8717349712133
3.612,2613.9235202105992
3.616,2598.9942538455134
3.62,2585.003171829309
3.624,2588.052336213842
3.628,2577.167177096354
3.632,2598.137635965624
3.636,2566.034852039567
3.64,2470.953632024452
3.644,2463.2861265250967
3.648,2479.137256337266
3.652,2465.7800711722334
3.656,2471.036184320299
3.66,2441.9736786203143
3.664,2435.331315819103
3.668,2451.8645077515107
3.672,2432.920676873813
3.676,2445.418119902189
3.68,2409.9558334418375
3.684,2395.916343346394
3.688,2436.3969212180696
3.692,2376.2543574187935
3.696,2441.7421810493065
3.7,2480.946893690086
3.704,2448.1278440636866
3.708,2571.752756247807
3.712,2307.393225681575
3.716,2771.6640105374
3.72,4489.002903158703
3.724,4695.124820127169
3.728,4175.779652504868
3.732,4871.353226528625
3.736,4038.451354578224
3.74,2105.1417174746866
3.744,1980.2388660899528
3.748,2234.811032241816
3.752,2006.2649506707344
3.756,2170.6719424931366
3.76,2267.9726686467775
3.764,2253.4972325931953
3.768,2293.3516033953542
3.772,2239.8388435394995
3.776,2293.3044695516714
3.78,2360.009272429812
3.784,2357.3485192620196
3.788,2367.7427891271136
3.792,2348.8869378899417
3.796,2372.5336883011046
3.8,2418.015282530175
3.804,2418.977743400177
3.808,2418.7431701601454
3.812,2415.4817586418153
3.816,2421.806775907636
3.82,2439.0075183534022
3.824,2439.892271562422
3.828,2438.440744324658
3.832,2438.9524585006898
3.836,2439.6918374247666
3.84,2445.0034793433215
3.844,2445.717611887017
3.848,2443.8779914714637
3.852,2446.492833467328
3.856,2442.975256655646
3.86,2431.993386433892
3.864,2430.537505923473
3.868,2434.7174266400752
3.872,2427.620594388869
3.876,2438.8426839466324
3.88,2478.023415462013
3.884,2482.5092120710815
3.888,2471.564525045445
3.892,2485.1241496312828
3.896,2471.0028089402963
3.9,2448.994340743667
3.904,2449.209479525673
3.908,2447.3420080071623
3.912,2451.760426873266
3.916,2446.0704300466136
3.92,2440.0020710406498
3.924,2441.720955927066
3.928,2435.584878065699
3.932,2447.1640053789693
3.936,2430.3975765807886
3.94,2387.981112644589
3.944,2386.015547113702
3.948,2388.4758575699548
3.952,2390.1545475551147
3.956,2382.979712755222
3.96,2353.984080301352
3.964,2351.7916165434913
3.968,2355.6366082881254
3.972,2354.1471805212345
3.976,2351.6171899466854
3.98,2333.9890768174446
3.984,2332.381280760506
3.988,2335.190576817462
3.992,2334.4000226023845
3.996,2331.332541237998
4.0,2310.9864370311034
4.004,2308.610873541592
4.008,2313.853290785645
4.012,2308.65963720076
4.016,2312.475087663375
4.02,2315.0002765488193
4.024,2315.2663877131827
4.028,2313.6033696700215
4.032,2318.5942435367097
4.036,2308.0886132383284
4.04,2264.97229953341
4.044,2259.9126671448635
4.048,2272.0207993406507
4.052,2257.548203807677
4.056,2272.1188020675404
4.06,2295.00711504434
4.064,2295.2769716562393
4.068,2295.549550998868
4.072,2293.755167036558
4.076,2296.668559402884
4.08,2304.0036551889693
4.084,2304.603251563169
4.088,2302.935867381654
4.092,2305.8401187145796
4.096,2300.92843198066
4.1,2282.988795091796
4.104,2281.0910305112393
4.108,2285.3698237626154
4.112,2280.9467812236735
4.116,2284.2819438326846
4.12,2284.9982078366115
4.124,2284.5479652471877
4.128,2285.3318911121382
4.132,2285.5866445864312
4.136,2282.711898507301
4.14,2264.987327507538
4.144,2262.7782620133235
4.148,2267.4537264458654
4.152,2264.0354666545377
4.156,2262.6822141244793
4.16,2232.9737194521836
4.164,2227.132983851227
4.168,2242.6158149848716
4.172,2221.3524385548317
4.176,2245.10227385163
4.18,2284.0103113081514
4.184,2283.154612969838
4.188,2288.6917454258232
4.192,2275.156264008655
4.196,2296.4912068230024
4.2,2353.027320526578
4.204,2355.772853091795
4.208,2352.095362435307
4.212,2350.692851281453
4.216,2358.4538495485745
4.22,2387.0140093323075
4.224,2387.8016473737944
4.228,2389.2579052625856
4.232,2379.4206450707957
4.236,2401.56341201276
4.24,2488.0551987538884
4.244,2496.7969113193753
4.248,2477.5108941950534
4.252,2496.588794189042
4.256,2483.5040259443253
4.26,2490.0168836012426
4.264,2494.3634895522455
4.268,2483.1501994977534
4.272,2496.7405720662987
4.276,2486.177484498161
4.28,2497.0233202787344
4.284,2504.0161620253275
4.288,2482.8010277878498
4.292,2517.9640032801035
4.296,2469.447088447174
4.3,2342.9330708132866
4.304,2334.6619132476167
4.308,2350.2237829073197
4.312,2340.4652455515347
4.316,2339.0094520847774
4.32,2292.9619097184323
4.324,2286.1036845032127
4.328,2301.8125140059765
4.332,2286.2907587222558
4.336,2293.646234224673
4.34,2253.953240333528
4.344,2242.9418216038953
4.348,2272.261711356019
4.352,2234.68340424748
4.356,2264.297430165378
4.36,2196.877507656467
4.364,2156.9339665253815
4.368,2292.336562992886
4.372,2026.7964721561364
4.376,2471.978096987276
4.38,4063.0815908042405
4.384,4250.4224488817645
4.388,3778.1790566871364
4.392,4411.667531286012
4.396,3649.335373775095
4.4,1862.0586031974692
4.404,1744.4743180120497
4.408,1985.934601595621
4.412,1766.7513556723354
4.416,1925.6940955202324
4.42,2016.9644565214276
4.424,2001.810457350316
4.428,2043.3376213226823
4.432,1988.346660305244
4.436,2041.1741844308374
4.44,2091.9955359448986
4.444,2086.16489177814
4.448,2104.6420717330157
4.452,2075.8148689701975
4.456,2108.1083802378016
4.46,2153.0069739361975
4.464,2150.4426035016486
4.468,2160.8030284851743
4.472,2140.7870821517813
4.476,2168.073706630577
4.48,2228.0266529996375
4.484,2229.884591857577
4.488,2228.4152618493667
4.492,2224.7473551018156
4.496,2233.5085788215656
4.5,2259.0127859702675
4.504,2260.044188625829
4.508,2258.939188416566
4.512,2257.8651099860854
4.516,2260.7211650606046
4.52,2264.9986650754745
4.524,2263.767682210399
4.528,2268.3662722929475
4.532,2259.351876196158
4.536,2272.7125084219892
4.54,2307.0175884336504
4.544,2308.546021894896
4.548,2306.8639850161812
4.552,2304.6835101809015
4.556,2312.0710195278207
4.56,2341.0181491021053
4.564,2343.0837636654005
4.568,2339.9588452356
4.572,2339.073217060957
4.576,2347.5474441592905
4.58,2397.0399224069474
4.584,2404.11181045989
4.588,2386.168315285678
4.592,2409.864440827895
4.596,2382.991210057742
4.6,2329.9760633287187
4.604,2328.195720555992
4.608,2330.044233265105
4.612,2332.507547837738
4.616,2324.8577066815583
4.62,2295.9813891288927
4.624,2293.6217118405702
4.628,2298.2678534856313
4.632,2294.925228434195
4.636,2295.357722841852
4.64,2284.9903610031483
4.644,2283.3757396263213
4.648,2287.0791982654464
4.652,2283.2315284487986
4.656,2286.01468116952
4.66,2285.997881065109
4.664,2285.608383321426
4.668,2286.1310884352806
4.672,2286.988824752
4.676,2282.9691135394655
4.68,2259.981018929253
4.684,2256.763357991262
4.688,2264.5794147788197
4.692,2255.398900491621
4.696,2263.481580904953
4.7,2266.9942419868235
4.704,2264.899305146056
4.708,2271.2933601872396
4.712,2261.2125389788193
4.716,2273.3411820050364
4.72,2294.0059053527348
4.724,2293.3494938906492
4.728,2297.128259836858
4.732,2288.041573531872
4.736,2302.7406718842058
4.74,2345.025419585511
4.744,2347.942739719433
4.748,2342.2411458997317
4.752,2346.714153318396
4.756,2344.245754662512
4.76,2342.998904031176
4.764,2342.405027246963
4.768,2344.869487297277
4.772,2339.39427281199
4.776,2348.5864949825345
4.78,2377.0179243472885
4.784,2379.0905020123537
4.788,2375.208622420854
4.792,2377.489331782623
4.796,2378.2774091230417
4.8,2391.0111168442786
4.804,2392.760036999137
4.808,2388.620734458795
4.812,2393.5400625780385
4.816,2388.2201653917805
4.82,2374.9904798964244
4.824,2373.257530936844
4.828,2378.3480869390605
4.832,2369.7003828951224
4.836,2382.7546106820428
4.84,2423.0272644338484
4.844,2426.696185021634
4.848,2418.383031013719
4.852,2427.6200924778555
4.856,2418.476333232211
4.86,2400.990082448438
4.864,2399.630517352301
4.868,2403.1983763964668
4.872,2397.8557352849025
4.876,2405.2410832759983
4.88,2425.011763289731
4.884,2426.1642152850027
4.888,2424.37842123348
4.892,2424.409123861677
4.896,2426.9830104010357
4.9,2439.007911737158
4.904,2439.6593802427565
4.908,2439.2871473465407
4.912,2436.815726130893
4.916,2443.6389275360607
4.92,2471.0192938535665
4.924,2473.195395734108
4.928,2469.691190954018
4.932,2469.2484521395018
4.936,2477.8928972461385
4.94,2533.0497166034606
4.944,2541.5475887473567
4.948,2519.3958451381623
4.952,2550.0025977457335
4.956,2513.285918470958
4.96,2431.955140074438
4.964,2427.744937849648
4.968,2434.959198877535
4.972,2431.9973774454834
4.976,2428.381663042196
4.98,2398.9750473261324
4.984,2395.432033796801
4.988,2403.071952610685
4.992,2396.7297496853384
4.996,2397.1827409892617
5.0,2363.962527499598
5.004,2357.0085718856158
5.008,2374.6657194636864
5.012,2354.155379136513
5.016,2365.9554903916414
5.02,2294.888266562061
5.024,2266.5243103968137
5.028,2358.6656335166454
5.032,2186.7631582449894
5.036,2462.2253762986506
5.04,3384.6909440069085
5.044,3482.298124092164
5.048,3247.4372703552717
5.052,3535.176292113164
5.056,3229.108834061694
5.06,2683.7580248124304
5.064,2673.2482261238747
5.068,2668.494747426157
5.072,2734.3926468548207
5.076,2595.6409648249955
5.08,2109.647984772773
5.084,2064.923159548078
5.088,2164.353731704508
5.092,2059.926898983836
5.096,2150.778523134046
5.1,2254.0207696294533
5.104,2251.0607047782523
5.108,2262.7475688884538
5.112,2242.2041968716594
5.116,2265.8760808475795
5.12,2300.0078902887917
5.124,2298.7828356756204
5.128,2303.901250120457
5.132,2294.618316937922
5.136,2304.982730411687
5.14,2312.993505043117
5.144,2310.1143047520663
5.148,2319.5938214301373
5.152,2303.2014752084674
5.156,2325.1277189626217
5.16,2374.0252857523337
5.164,2375.4162929784898
5.168,2375.1657095249484
5.172,2369.060149733162
5.176,2383.025834174277
5.18,2432.034809915474
5.184,2435.8924153492944
5.188,2428.4388772004386
5.192,2433.3790033076807
5.196,2433.698389331439
5.2,2454.0199165895647
5.204,2456.8543646730614
5.208,2450.5737837639026
5.212,2456.517194358351
5.216,2453.3087597433105
5.22,2460.009686496211
5.224,2461.4857844570506
5.228,2458.632281534761
5.232,2459.474764694308
5.236,2464.3366042973194
5.24,2504.0402608092404
5.244,2510.7909673339045
5.248,2493.007810929307
5.252,2517.6463151386047
5.256,2488.6552178897205
5.26,2428.968061704133
5.264,2426.6676159773806
5.268,2429.7542844128575
5.272,2430.543782032384
5.276,2425.278159504458
5.28,2403.98421812618
5.284,2402.1409453442902
5.288,2406.288595697472
5.292,2401.312591344198
5.296,2407.8605667465526
5.3,2432.0223493502635
5.304,2435.8191265307837
5.308,2425.2252542391234
5.312,2441.4880716614302
5.316,2419.826307037822
5.32,2364.964714852481
5.324,2361.5422362992203
5.328,2367.87281185165
5.332,2364.1027301462373
5.336,2363.365828568558
5.34,2345.9827781626027
5.344,2343.4944171930856
5.348,2349.4742678926777
5.352,2342.256431751029
5.356,2349.90318454636
5.36,2366.0107938344736
5.364,2367.456613891822
5.368,2363.499754001159
5.372,2369.8279574274907
5.376,2360.383284274854
5.38,2330.977793662309
5.384,2328.3447049316096
5.388,2334.0447242274636
5.392,2328.6500332185956
5.396,2331.9816511519407
5.4,2327.9919800901657
5.404,2326.5009956838317
5.408,2330.232881608061
5.412,2326.0070675102133
5.416,2328.636927150342
5.42,2319.9849276122777
5.424,2316.7447910169467
5.428,2326.4202728203386
5.432,2310.5472778840876
5.436,2332.5337605276845
5.44,2391.040150337818
5.444,2395.191554434815
5.448,2386.756098173908
5.452,2393.9238583659317
5.456,2389.8334585086595
5.46,2393.0066574261637
5.464,2394.0682718571406
5.468,2391.7438874358054
5.472,2393.6077634927924
5.476,2393.7726494392646
5.48,2405.0132358467445
5.484,2407.2362133445345
5.488,2401.2677579212154
5.492,2409.8369434111937
5.496,2399.129384403679
5.5,2372.982087621447
5.504,2371.0259420030457
5.508,2375.4549882419306
5.512,2370.352659131343
5.516,2375.9036548036593
5.52,2388.007811002045
5.524,2388.7615114007476
5.528,2387.2669542636054
5.532,2388.4577820163386
5.536,2387.894936097796
5.54,2389.001639606785
5.544,2389.2623559712656
5.548,2388.571334562627
5.552,2389.675014166935
5.556,2387.7324763938004
5.56,2377.989266912374
5.564,2376.0121245705473
5.568,2381.9832130733753
5.572,2371.731922419153
5.576,2386.9765607475883
5.58,2432.0337540215087
5.584,2435.6315064607898
5.588,2428.289390120735
5.592,2434.132866916114
5.596,2432.4845065049567
5.6,2448.019487851388
5.604,2450.991991750055
5.608,2443.8664834408655
5.612,2451.5138834237223
5.616,2447.006040398419
5.62,2463.0281736532465
5.624,2468.842506034248
5.628,2451.3878916770605
5.632,2480.351651562831
5.636,2439.5970572247743
5.64,2328.9207809977365
5.644,2321.211496803491
5.648,2335.8498551245484
5.652,2327.180195221456
5.656,2322.787186130406
5.66,2255.9255847242507
5.664,2244.795389537335
5.668,2272.7549608190297
5.672,2238.065476607734
5.676,2271.014764276208
5.68,2295.9835409970647
5.684,2289.2919841727125
5.688,2309.648542666194
5.692,2281.20976812075
5.696,2300.259159673452
5.7,2191.7946517336723
5.704,2143.649800039861
5.708,2304.4555967999368
5.712,1994.0055824351664
5.716,2508.291236437704
5.72,4313.584634907929
5.724,4520.026290984469
5.728,4004.1322676649456
5.732,4683.500691534565
5.736,3883.284037650421
5.74,2076.7942218433077
5.744,1966.5208792370963
5.748,2186.8346604202984
5.752,2001.0113565211475
5.756,2117.999879481559
5.76,2117.8983567457017
5.764,2098.8262812637527
5.768,2146.507563475581
5.772,2089.7651717614162
5.776,2139.8783513705607
5.78,2178.987484962155
5.784,2173.0825987149524
5.788,2190.7171684274253
5.792,2164.617334629204
5.796,2193.189287223082
5.8,2235.0128279247324
5.804,2233.9284505173287
5.808,2239.308105031647
5.812,2228.0543895229075
5.816,2243.5911498004007
5.82,2278.020515711829
5.824,2279.338156934878
5.828,2277.498435164246
5.832,2277.5012216946393
5.836,2279.0791712376435
5.84,2283.0009708197813
5.844,2282.659438632307
5.848,2284.197311359163
5.852,2280.833289002559
5.856,2286.123298927398
5.86,2301.010858741555
5.864,2301.9518651105054
5.868,2300.329443528831
5.872,2300.858568280181
5.876,2302.2538681932265
5.88,2312.0096074146923
5.884,2313.1167786962274
5.888,2310.879914485223
5.892,2312.234217410849
5.896,2313.534408686226
5.9,2330.0195646962457
5.904,2332.922282103179
5.908,2325.4990437472234
5.912,2334.9187536097793
5.916,2325.8762998368497
5.92,2320.0069112511023
5.924,2322.498691342084
5.928,2314.188620314062
5.932,2329.00805662532
5.936,2308.148834574587
5.94,2255.964551058892
5.944,2253.3875876054717
5.948,2257.0038439512464
5.952,2258.150308110027
5.956,2249.9453643543548
5.96,2209.962084847847
5.964,2205.407027100109
5.968,2216.2631882487126
5.972,2203.035380665226
5.976,2217.808642163942
5.98,2253.0283374439528
5.984,2256.483019012863
5.988,2247.4071311684866
5.992,2260.677595318673
5.996,2242.94407518694
6.0,2195.9644829435033
6.004,2192.7290718060044
6.008,2198.9556866064877
6.012,2194.7860328858033
6.016,2194.781746637378
6.02,2178.9815669227496
6.024,2176.6201085307644
6.028,2182.1001317311247
6.032,2176.230251959916
6.036,2180.8051485338538
6.04,2181.996167196472
6.044,2181.1759996442543
6.048,2183.2623006452864
6.052,2180.9081603701316
6.056,2182.3705617238793
6.06,2178.993616712302
6.064,2177.9493130358615
6.068,2180.611628298805
6.072,2177.408585733039
6.076,2179.956118783318
6.08,2177.9929239757917
6.084,2176.438445543935
6.088,2181.2989419855394
6.092,2172.8227212268785
6.096,2185.431013141394
6.1,2224.0335926370553
6.104,2227.8509118831585
6.108,2218.600624853727
6.112,2230.3078718610063
6.116,2216.785895204858
6.12,2185.97737257619
6.124,2183.8716227948194
6.128,2188.462714651271
6.132,2183.556086551879
6.136,2188.52779536343
6.14,2199.0078321215096
6.144,2199.7770993229556
6.148,2198.1079041153325
6.152,2199.613957677707
6.156,2199.169359844127
6.16,2206.0110515928895
6.164,2208.0235101610265
6.168,2201.942933205939
6.172,2212.170712400195
6.176,2197.5384609425523
6.18,2156.9677312789927
6.184,2154.0246118711675
6.188,2159.853878734003
6.192,2155.5662783981743
6.196,2156.2457515637548
6.2,2141.980861189613
6.204,2139.2265576233517
6.208,2146.467203044518
6.212,2136.385577912049
6.216,2148.714903000419
6.22,2179.024469361063
6.224,2181.6843852818297
6.228,2174.8616746183993
6.232,2184.942040042896
6.236,2170.154317946566
6.24,2119.951151885429
6.244,2113.892839702261
6.248,2129.4596580054804
6.252,2108.1210890800667
6.256,2134.037674393686
6.26,2193.041768088884
6.264,2196.134767451222
6.268,2191.023022119939
6.272,2192.3234312292348
6.276,2197.0445701247477
6.28,2227.031022151705
6.284,2230.4317304065785
6.288,2223.1475139628596
6.292,2229.1679668664824
6.296,2228.506242873285
6.3,2258.043034577918
6.304,2264.7987528050385
6.308,2245.851389287522
6.312,2274.6243632479045
6.316,2237.2891910441085
6.32,2146.9332482492196
6.324,2141.802008519733
6.328,2150.724261916136
6.332,2147.0803780711744
6.336,2142.100583949664
6.34,2102.9584062371327
6.344,2098.5066721795274
6.348,2107.729653387354
6.352,2101.109531509306
6.356,2099.227085033138
6.36,2050.9357804860556
6.364,2041.9813735520238
6.368,2064.7508234722704
6.372,2036.951419312522
6.376,2059.5102634950845
6.38,2032.9116279033838
6.384,2013.2841890469579
6.388,2077.991886376024
6.392,1957.358855988626
6.396,2146.7802067982307
6.4,2748.547252788118
6.404,2804.689375483114
6.408,2678.670311908483
6.412,2808.853613668503
6.416,2711.0323668405417
6.42,2741.1962031315884
6.424,2782.7662336107555
6.428,2654.5248185576893
6.432,2871.7661708956143
6.436,2562.9614390888446
6.44,1703.2714756853281
6.444,1634.5336448765374
6.448,1785.0949360996888
6.452,1629.9956553151876
6.456,1765.5685831287178
6.46,1935.063479874419
6.464,1934.362526049745
6.468,1941.614288187624
6.472,1925.6665912138174
6.476,1943.0952008821803
6.48,1953.9852809756849
6.484,1949.7224082238452
6.488,1962.6959450855265
6.492,1942.4560312468243
6.496,1966.7966499382756
6.5,2013.0267267494767
6.504,2014.0636746066493
6.508,2013.442562400877
6.512,2011.3934280936912
6.516,2014.559635008154
6.52,2013.9909185644042
6.524,2011.8462596091072
6.528,2018.5482577924142
6.532,2007.491561121085
6.536,2021.806333688173
6.54,2052.018664727645
6.544,2052.6652691946833
6.548,2052.9863791447756
6.552,2048.9532422605407
6.556,2056.7923398069943
6.56,2078.014137003343
6.564,2078.3135555716617
6.568,2079.9139308376184
6.572,2072.4646064417466
6.576,2088.285954264152
6.58,2149.060790830841
6.584,2155.4710225779354
6.588,2140.632066715959
6.592,2157.113809986265
6.596,2142.3193019483842
6.6,2126.998928170736
6.604,2128.048467439875
6.608,2124.7331702253236
6.612,2129.303849858475
6.616,2126.338223868767
6.62,2139.0263777060018
6.624,2143.686315795194
6.628,2129.7117745100227
6.632,2152.6762082539753
6.636,2120.9173474292875
6.64,2036.9297895380491
6.644,2030.946279334122
6.648,2043.4262453498334
6.652,2031.7576347580127
6.656,2041.0123863756207
6.66,2053.007646372328
6.664,2053.8571313049724
6.668,2051.1931682167638
6.672,2056.1173525937634
6.676,2048.383043668695
6.68,2025.9814077468973
6.684,2024.6793823154642
6.688,2026.5466502334837
6.692,2027.2221304783945
6.696,2022.4033674260975
6.7,1997.9735154724144
6.704,1995.1319404463898
6.708,2001.8304767069342
6.712,1994.0073888063628
6.716,2001.9705000475933
6.72,2017.011242953274
6.724,2018.0148687794808
6.728,2015.5473637451062
6.732,2018.857611479936
6.736,2014.8188631783785
6.74,2006.9963252560945
6.744,2007.2913005931005
6.748,2005.3002011590993
6.752,2010.7857172525228
6.756,2000.5328388871314
6.76,1963.9634190603094
6.764,1960.2801093217909
6.768,1968.822829080388
6.772,1959.0747559382266
6.776,1968.7721257110006
6.78,1986.0121089137865
6.784,1986.9798281680116
6.788,1984.6692497760566
6.792,1987.7748314746082
6.796,1983.64871475233
6.8,1972.9916498232678
6.804,1972.547525678733
6.808,1972.7750766616298
6.812,1974.5181359686494
6.816,1969.767811692376
6.82,1949.9794513366462
6.824,1947.9713034826736
6.828,1952.4037271701477
6.832,1947.9958154992446
6.836,1951.287603253831
6.84,1952.9989794740154
6.844,1952.8443403608092
6.848,1952.9244381704075
6.852,1953.739036096484
6.856,1951.3540838835868
6.86,1941.9916197990806
6.864,1941.562646011639
6.868,1941.45721849366
6.872,1944.6184695386908
6.876,1936.2730569341186
6.88,1898.958360175992
6.884,1894.4944486774991
6.888,1905.133794553508
6.892,1892.790295014991
6.896,1904.3098342111396
6.9,1917.0013458509393
6.904,1916.1296249996133
6.908,1919.0938082097664
6.912,1914.3697779007778
6.916,1919.2061052315335
6.92,1920.992820861156
6.924,1919.1750202582296
6.928,1925.066355477945
6.932,1914.7762822217667
6.936,1929.2666531584466
6.94,1967.032054071606
6.944,1969.465403715482
6.948,1964.7703497462633
6.952,1968.1605798192943
6.956,1967.0947904528912
6.96,1972.0065621133676
6.964,1972.4766960720265
6.968,1972.249031450638
6.972,1969.6804539079608
6.976,1978.220793039455
6.98,2027.0644526183585
6.984,2035.6036007021587
6.988,2011.3747070199995
6.992,2049.802015476908
6.996,1995.7694152240301
7.0,1841.8550315706543
7.004,1829.0196602342185
7.008,1857.0676888099063
7.012,1829.3179275952907
7.016,1849.8726634226077
7.02,1851.9745146856071
7.024,1847.3776850224988
7.028,1859.466776672744
7.032,1845.0551976707816
7.036,1854.424204229911
7.04,1826.9376104741357
7.044,1817.3122980712967
7.048,1843.3066389271803
7.052,1810.22510984787
7.056,1833.8277067142053
7.06,1748.7851444445982
7.064,1707.8125172307812
7.068,1844.4162552885346
7.072,1582.1140868528978
7.076,2014.1265209528663
7.08,3517.6271223345434
7.084,3687.8506034039497
7.088,3262.1188822184727
7.092,3821.9212322793155
7.096,3163.334920616109
7.1,1683.7843484232449
7.104,1595.2554080534262
7.108,1770.180374759755
7.112,1629.4846381625025
7.116,1705.089050064982
7.12,1630.8156156121227
7.124,1606.8964844640664
7.128,1666.1105257310642
7.132,1595.097366799363
7.136,1661.385337980254
7.14,1733.007438422857
7.144,1728.1294835010035
7.148,1744.9389303980101
7.152,1716.670964332928
7.156,1750.718357648167
7.16,1810.031150556362
7.164,1809.9020201940855
7.168,1813.8431867138033
7.172,1802.6477910743406
7.176,1819.7065340429276
7.18,1859.0279184395727
7.184,1860.0934319745193
7.188,1859.7601311692238
7.192,1855.9171192290119
7.196,1864.0784868170606
7.2,1888.0199687056565
7.204,1889.1092081063193
7.208,1887.8807989675324
7.212,1886.4483776152804
7.216,1891.3952496791649
7.22,1911.020210178837
7.224,1912.7069052791544
7.228,1909.2201998987248
7.232,1912.2401950415356
7.236,1910.4088702581262
7.24,1910.0001998895953
7.244,1909.790845436593
7.248,1911.0716939360113
7.252,1907.3448101286115
7.256,1915.0231125661026
7.26,1946.035661348675
7.264,1949.6128804914215
7.268,1941.1310006803913
7.272,1950.7769328710294
7.276,1942.3617633142649
7.28,1938.0078414042316
7.284,1939.97787599025
7.288,1933.8481373267464
7.292,1943.741614195908
7.296,1931.487835352981
7.3,1908.9881169161738
7.304,1909.309957580125
7.308,1906.444627483882
7.312,1914.1470250573514
7.316,1901.4766944263813
7.32,1866.9708026753365
7.324,1865.3713426257282
7.328,1867.197337721557
7.332,1869.3584080987262
7.336,1861.715979386185
7.34,1830.9679972709675
7.344,1828.4612955602602
7.348,1833.2518598281647
7.352,1830.2696076803195
7.356,1829.7822295462645
7.36,1817.9858553981135
7.364,1816.9857562710854
7.368,1818.2435270040057
7.372,1819.6999583123716
7.376,1813.587168315455
7.38,1784.967230408283
7.384,1782.0705406920235
7.388,1788.1573691863878
7.392,1783.1172633550739
7.396,1784.715270265208
7.4,1772.9809749784627
7.404,1770.966553721161
7.408,1775.4009016730713
7.412,1771.6320046959238
7.416,1772.1560572394785
7.42,1755.973503214741
7.424,1752.7691504260968
7.428,1761.0761824661643
7.432,1750.0726831436248
7.436,1762.1678741011392
7.44,1784.0147255540348
7.444,1784.6159988488598
7.448,1783.997160137806
7.452,1783.2299760715703
7.456,1785.6640323033344
7.46,1797.0151608481103
7.464,1798.927011792754
7.468,1793.2319822663765
7.472,1803.007483235874
7.476,1788.127842321773
7.48,1741.951758159549
7.484,1737.8714009475977
7.488,1746.7679808486007
7.492,1738.1543735015273
7.496,1744.1100664931375
7.5,1742.9903030458672
7.504,1741.6278127666671
7.508,1744.8845515105081
7.512,1741.6701349731945
7.516,1742.823904638046
7.52,1732.9824037646006
7.524,1730.887817641312
7.528,1736.1017444764643
7.532,1729.9159105630051
7.536,1735.2750946286362
7.54,1737.9957748989725
7.544,1737.1326359480356
7.548,1739.3089639570621
7.552,1737.170424178436
7.556,1737.3361638104707
7.56,1724.9790491235135
7.564,1722.4624114615442
7.568,1728.90497816741
7.572,1720.8142316874957
7.576,1728.5030577995387
7.58,1734.9968899117268
7.584,1733.8560055731978
7.588,1737.2708037911982
7.592,1732.5027474560948
7.596,1736.4932094886183
7.6,1731.9829278422055
7.604,1729.1200820832773
7.608,1737.7073929761434
7.612,1723.952839008954
7.616,1741.8376519523115
7.62,1782.0321461717801
7.624,1783.5329606608855
7.628,1782.0563065161848
7.632,1779.3348212497192
7.636,1787.7776419650334
7.64,1823.0413327385993
7.644,1826.8012746134023
7.648,1818.033623313445
7.652,1827.8584889103854
7.656,1819.2148392550712
7.66,1815.010702373485
7.664,1817.8290108518113
7.668,1807.879798442351
7.672,1827.5345347710927
7.676,1795.679639690348
7.68,1692.8883297241155
7.684,1683.6852503274583
7.688,1703.3456929749486
7.692,1686.1894149087193
7.696,1692.62941349217
7.7,1647.9147653349482
7.704,1637.399096213328
7.708,1664.8955908590538
7.712,1629.399968373106
7.716,1663.3069755109523
7.72,1681.9610239363924
7.724,1672.438100665484
7.728,1702.1001575932573
7.732,1656.2620190013415
7.736,1703.2303501569713
7.74,1689.8337548010397
7.744,1652.8182979464084
7.748,1785.2312941885568
7.752,1514.1468855813544
7.756,1978.9661298551478
7.76,3656.0231914336377
7.764,3852.3107160014965
7.768,3355.859113797171
7.772,4019.7721606161854
7.776,3223.944822877334
7.78,1378.2912929068673
7.784,1259.259100696918
7.788,1505.0008602866162
7.792,1281.8696434672609
7.796,1445.0911618638288
7.8,1548.9533122475407
7.804,1535.4478950737052
7.808,1573.1217409752435
7.812,1522.3241521859145
7.816,1572.2557821498415
7.82,1627.0050380598145
7.824,1623.105926967255
7.828,1636.1384977343669
7.832,1615.2064906273772
7.836,1638.6526492503672
7.84,1671.0098551085061
7.844,1669.5869748113605
7.848,1675.1343014283539
7.852,1665.418346722933
7.856,1676.202816368405
7.86,1685.9936130996798
7.864,1683.7518282483002
7.868,1691.0059186746494
7.872,1679.0535272918398
7.876,1693.7993205533855
7.88,1721.016986206211
7.884,1721.145538707943
7.888,1722.3539304377466
7.892,1718.4893706489809
7.896,1723.575568292185
7.9,1726.9918051665366
7.904,1724.789150781723
7.908,1732.3553760183224
7.912,1718.3484252422709
7.916,1738.8970945308843
7.92,1794.0534187211724
7.924,1797.417246433095
7.928,1791.5909243886226
7.932,1793.5627478142158
7.936,1798.391126813639
7.94,1834.0499380671606
7.944,1838.914489248632
7.948,1827.0639252802625
7.952,1841.2433298011629
7.956,1827.7129079970982
7.96,1814.0024756687046
7.964,1815.9842052456088
7.968,1808.86201992688
7.972,1822.3117023492484
7.976,1802.6863044317954
7.98,1750.9503112397604
7.984,1747.936699918024
7.988,1752.9987489639354
7.992,1751.6808480852542
7.996,1746.7983668097895
8.0,1714.9568766880686
8.004,1710.9659830788578
8.008,1720.5430033024302
8.012,1709.0368491619745
8.016,1721.1821569032134
8.02,1746.02396466244
8.024,1748.0276955251452
8.028,1742.7270351749066
8.032,1750.7307375839332
8.036,1739.509685096845
8.04,1708.9699591135704
8.044,1707.2893664531614
8.048,1709.3971750858402
8.052,1711.6673208120585
8.056,1701.8596057370096
8.06,1652.9349452484032
8.064,1647.001321553881
8.068,1661.0294499842598
8.072,1645.1952708922684
8.076,1659.0676388982674
8.08,1668.992215368711
8.084,1666.7567712537384
8.088,1673.801367537894
8.092,1662.2157124441176
8.096,1677.3669184386858
8.1,1714.036442514833
8.104,1716.7890213225126
8.108,1710.01663560909
8.112,1719.6070776918903
8.116,1705.5253782409695
8.12,1656.9384585820344
8.124,1651.235331611059
8.128,1665.4380429556086
8.132,1647.3377306022783
8.136,1667.088136802772
8.14,1703.0265216809478
8.144,1703.9634117725102
8.148,1703.1341153949645
8.152,1701.722030587147
8.156,1704.9807207344018
8.16,1713.006041488186
8.164,1713.1508189822123
8.168,1713.1781328069444
8.172,1712.667236818265
8.176,1713.1004903958526
8.18,1710.9949527025408
8.184,1710.4169804972616
8.188,1711.6959664886372
8.192,1710.9113807788685
8.196,1709.5688416240528
8.2,1693.9734864625352
8.204,1690.9873556987116
8.208,1699.0886577830845
8.212,1687.4310501629623
8.216,1701.7882855571345
8.22,1735.0326427808322
8.224,1737.3553409560388
8.228,1731.8146203594556
8.232,1739.338941431984
8.236,1728.4283437315084
8.24,1689.9494313266923
8.244,1685.1940613908819
8.248,1697.2466782911563
8.252,1681.4541524876283
8.256,1699.2292597126984
8.26,1734.0290735035649
8.264,1735.5734582589307
8.268,1732.380188986118
8.272,1736.3772340709684
8.276,1729.141554546659
8.28,1691.9414772420425
8.284,1685.439904318032
8.288,1703.5028356467483
8.292,1676.3921967407705
8.296,1711.2227907225697
8.3,1793.0768906183819
8.304,1797.2472787396462
8.308,1790.5034718708748
8.312,1791.9113607023987
8.316,1798.171534379291
8.32,1833.044125847673
8.324,1836.224148011677
8.328,1830.1965303904715
8.332,1833.1749805710162
8.336,1837.2544050583265
8.34,1878.0658892337258
8.344,1884.9224348249593
8.348,1866.7415206009941
8.352,1892.2270948570656
8.356,1861.5827376194677
8.36,1796.9455266835066
8.364,1794.992525826308
8.368,1795.472604885968
8.372,1804.6553533386812
8.376,1781.0900686188068
8.38,1681.8692156852728
8.384,1670.8076642665233
8.388,1696.431400442197
8.392,1669.049373770259
8.396,1689.659012211423
8.4,1680.9434576238905
8.404,1672.7777239780885
8.408,1695.0212294671032
8.412,1666.9662284990225
8.416,1685.6632051676575
8.42,1604.7710951527386
8.424,1569.4943894403636
8.428,1685.1201094415555
8.432,1468.188326815152
8.436,1817.5616239012395
8.44,2993.4854415056884
8.444,3119.8599284381935
8.448,2809.3855750817374
8.452,3202.933884528161
8.456,2761.21195193838
8.46,1861.1998328715829
8.464,1821.3414925279424
8.468,1884.6072504461804
8.472,1872.6801777979163
8.476,1813.3028741670942
8.48,1472.5342683106396
8.484,1434.0476658775026
8.488,1523.2089052994043
8.492,1424.2832109758183
8.496,1514.3723300551737
8.5,1622.03769176466
8.504,1618.7088622343988
8.508,1632.366624326563
8.512,1607.0212056792832
8.516,1638.715894949171
8.52,1697.0408850640877
8.524,1697.8258729627416
8.528,1698.3939025471382
8.532,1694.1809644295868
8.536,1699.3967692875124
8.54,1697.98183053389
8.544,1694.9646081371493
8.548,1703.9605049553772
8.552,1690.2119744004995
8.556,1706.1981719710868
8.56,1731.0103738756586
8.564,1729.9342569705618
8.568,1734.9110001972335
8.572,1724.5178813844448
8.576,1739.07661218393
8.58,1769.0207516400133
8.584,1768.8300263346418
8.588,1772.1808306850119
8.592,1761.9307857682898
8.596,1780.310293143944
8.6,1839.069004917215
8.604,1843.93445804634
8.608,1833.4169983103411
8.612,1843.7951715788436
8.616,1835.2633377114532
8.62,1824.9934521465398
8.624,1824.6076073704805
8.628,1825.8885614879064
8.632,1823.0640061943943
8.636,1828.6087161046305
8.64,1851.0311315171623
8.644,1853.753660599232
8.648,1846.9690249663443
8.652,1855.6443154619708
8.656,1846.1096343405725
8.66,1828.987700972535
8.664,1828.8918808949718
8.668,1827.7572034100797
8.672,1832.1922452068743
8.676,1823.4072219074226
8.68,1791.9602112532848
8.684,1789.001482789217
8.688,1795.4343456770607
8.692,1789.4846584022623
8.696,1792.6382480828993
8.7,1783.9781920425683
8.704,1781.5017443447873
8.708,1788.050747191147
8.712,1779.4054783589563
8.716,1788.155608937717
8.72,1796.9969208403668
8.724,1795.4014698941596
8.728,1801.2099632323998
8.732,1789.8092880455197
8.736,1807.7561642187318
8.74,1865.0732687457503
8.744,1871.1071249706833
8.748,1855.8110915728732
8.752,1876.8552383334759
8.756,1849.7323984761751
8.76,1775.9123632989747
8.764,1769.4226682870128
8.768,1784.4763928660434
8.772,1767.3026855149626
8.776,1784.2531100537437
8.78,1811.0189212749654
8.784,1811.5177084450845
8.788,1811.1071788027946
8.792,1810.6758084698208
8.796,1810.7447037984116
8.8,1803.985127007895
8.804,1802.2747035164746
8.808,1806.9491757079295
8.812,1800.4105526984986
8.816,1807.7084019564495
8.82,1820.0085712334799
8.824,1820.2254347409112
8.828,1819.855351692897
8.832,1820.7593762230606
8.836,1817.493531161711
8.84,1795.9631978715188
8.844,1792.2888142285599
8.848,1801.9757028221447
8.852,1788.8987052558953
8.856,1803.1840476567097
8.86,1825.010550722186
8.864,1824.319724131672
8.868,1827.8346112478685
8.872,1820.1774164937679
8.876,1831.1464628940032
8.88,1855.0192563957855
8.884,1855.303105331079
8.888,1856.4055820832702
8.892,1851.4067111796783
8.896,1860.8374595279463
8.9,1891.036716985071
8.904,1893.643499856652
8.908,1887.4918697780834
8.912,1895.3621112256458
8.916,1884.8767794854818
8.92,1849.9501880283178
8.924,1845.4994346717979
8.928,1857.0495662093035
8.932,1841.4529691839741
8.936,1859.1833432171784
8.94,1891.0228150653948
8.944,1891.1770537985326
8.948,1892.7783123327188
8.952,1887.367654332188
8.956,1895.4551426595938
8.96,1908.0001852977011
8.964,1906.1082050883954
8.968,1913.8267378473586
8.972,1897.4679789690285
8.976,1923.6275656793032
8.98,2001.091227906787
8.984,2006.8521650841249
8.988,1995.1598424677716
8.992,2004.7697622972491
8.996,1999.778508529438
9.0,2004.0106251538434
9.004,2004.4387162579726
9.008,2005.1776683433511
9.012,1999.1621520899055
9.016,2014.6965394772103
9.02,2087.1108930791333
9.024,2096.990555076117
9.028,2071.280146251217
9.032,2106.8709435081787
9.036,2063.2162266738937
9.04,1960.8909632145746
9.044,1954.7392736522715
9.048,1966.3073810580274
9.052,1959.3990350634115
9.056,1957.2127625575454
9.06,1915.9278052736927
9.064,1909.5396435842868
9.068,1924.871727941958
9.072,1908.0826709497078
9.076,1919.5812146788464
9.08,1899.9327601850327
9.084,1891.5485967497382
9.088,1914.873375616783
9.092,1883.005106889956
9.096,1912.2212262726762
9.1,1892.8630909697374
9.104,1869.6573555633881
9.108,1948.8342664141842
9.112,1795.9728155257071
9.116,2043.24695142607
9.12,2859.0879868862153
9.124,2940.910599465465
9.128,2747.527699606731
9.132,2972.532916455787
9.136,2752.2961705752764
9.14,2452.8706883665327
9.144,2464.5608297334043
9.148,2408.158212099355
9.152,2535.2934650559364
9.156,2330.6280983587735
9.16,1713.2344396065944
9.164,1661.8935260543346
9.168,1775.0483982005671
9.172,1659.2268133803018
9.176,1757.2972568858358
9.18,1860.0266971477654
9.184,1855.8269104032797
9.188,1870.5204001293662
9.192,1846.7552588760132
9.196,1872.1198639745169
9.2,1897.9929121412042
9.204,1894.3054656157667
9.208,1906.4520298326374
9.212,1886.396926494686
9.216,1910.6164102545702
9.22,1951.0226560782307
9.224,1949.986462515068
9.228,1955.9195652230273
9.232,1942.3360250863889
9.236,1962.2864301397092
9.24,2007.0386657529905
9.244,2007.6872907508036
9.248,2009.5250906844362
9.252,2000.2579975699825
9.256,2017.9436351578274
9.26,2072.0628718317625
9.264,2075.3352238998705
9.268,2070.051586705951
9.272,2070.7115045997098
9.276,2077.215988246435
9.28,2112.0490888881995
9.284,2115.201867330335
9.288,2109.242032577617
9.292,2112.207769502739
9.296,2115.7869625078506
9.3,2150.0582398603306
9.304,2154.9213795749383
9.308,2143.2141356644033
9.312,2156.67188717915
9.316,2144.891070691231
9.32,2138.0116680245274
9.324,2140.438313268965
9.328,2132.7898558504844
9.332,2145.4689601082596
9.336,2128.8141046294804
9.34,2090.9620791623743
9.344,2089.382587795639
9.348,2091.4295190126577
9.352,2092.5664605135175
9.356,2087.231868724927
9.36,2064.970183194921
9.364,2063.145362540719
9.368,2066.5332272400624
9.372,2065.0483962372805
9.376,2062.3442625098564
9.38,2037.9564246631685
9.384,2033.9813961982436
9.388,2044.501122537254
9.392,2029.7042004003217
9.396,2047.999332848558
9.4,2092.0512293728357
9.404,2095.28170751944
9.408,2087.875287252229
9.412,2096.624980717473
9.416,2086.5136925831825
9.42,2060.9678474587745
9.424,2058.752057040793
9.428,2063.9004936101437
9.432,2058.0822574079875
9.436,2063.608081767165
9.44,2071.004052291264
9.444,2070.9756207412684
9.448,2071.1406273020048
9.452,2071.2391374043245
9.456,2069.656191734809
9.46,2056.9760867801765
9.464,2054.7084236541164
9.468,2060.7427217514487
9.472,2052.4580705906556
9.476,2061.7937595618064
9.48,2078.011980178434
9.484,2078.100022201048
9.488,2078.7312384886523
9.492,2076.6405197696067
9.496,2079.37237484216
9.5,2080.9943300918585
9.504,2079.802878669931
9.508,2083.8031125466723
9.512,2076.6277938774306
9.516,2086.812042659171
9.52,2113.0301969627635
9.524,2114.707799213073
9.528,2111.2414461541866
9.532,2114.628884932481
9.536,2111.0669327115793
9.54,2099.9820557668254
9.544,2098.3382330511467
9.548,2102.7898369292575
9.552,2096.516088445154
9.556,2103.6679896518367
9.56,2115.0057250107416
9.564,2114.5488054161515
9.568,2116.8025217780437
9.572,2111.8521357080026
9.576,2119.202410335469
9.58,2137.018441162082
9.584,2137.7802812986133
9.588,2136.5770199981425
9.592,2137.203169661719
9.596,2136.2161203990377
9.6,2125.976361588093
9.604,2123.2681180127897
9.608,2131.366012450598
9.612,2118.2062958293573
9.616,2135.9615588243064
9.62,2179.0472881085966
9.624,2181.267231674416
9.628,2177.5283864327416
9.632,2179.0654551563343
9.636,2179.918386280175
9.64,2182.9979056258235
9.644,2181.8637136151956
9.648,2186.44712263346
9.652,2176.7090282899303
9.656,2192.298916246538
9.66,2237.053893726046
9.664,2239.770785789735
9.668,2235.342049185223
9.672,2235.864094509358
9.676,2241.815779108206
9.68,2276.053842536715
9.684,2279.8728140493968
9.688,2271.3934522361615
9.692,2279.499351633866
9.696,2274.9869248619657
9.7,2287.0360390078113
9.704,2291.100013866734
9.708,2279.1685069857785
9.712,2298.4715523624795
9.716,2271.477584258971
9.72,2196.905259350436
9.724,2191.275286326245
9.728,2202.665428163312
9.732,2194.393524790787
9.736,2194.0663601835804
9.74,2150.910368008974
9.744,2142.7754455134686
9.748,2163.565574574004
9.752,2137.872655988782
9.756,2160.4928215791806
9.76,2159.9378588193017
9.764,2150.699437631763
9.768,2178.1836374094587
9.772,2137.895026986667
9.776,2176.376671229776
9.78,2144.77798009134
9.784,2108.83084572971
9.788,2234.877901300788
9.792,1981.9377404859051
9.796,2409.7200438432596
9.8,3925.286473251596
9.804,4098.175769935666
9.808,3662.813758469812
9.812,4237.722349357095
9.816,3558.5677260575585
9.82,2028.2533979810503
9.824,1936.0982517703835
9.828,2120.7317027641957
9.832,1968.791307244682
9.836,2054.925991276576
9.84,1988.7350756296066
9.844,1962.190837346508
9.848,2031.2770962304621
9.852,1940.5650507847763
9.856,2038.2217186977005
9.86,2206.1406926480818
9.864,2209.404579205898
9.868,2208.565827159518
9.872,2197.1169905453385
9.876,2219.77072029706
9.88,2283.07326548473
9.884,2286.483794387219
9.888,2280.4873338473058
9.892,2283.892412971444
9.896,2282.867282793253
9.9,2278.985213325998
9.904,2276.703923585011
9.908,2284.413279178038
9.912,2270.1537513941958
9.916,2291.3470220126387
9.92,2349.070571438335
9.924,2352.6425589589767
9.928,2346.2743201460685
9.932,2349.140185852316
9.936,2352.0385090222894
9.94,2376.038766825953
9.944,2378.493750298136
9.948,2373.6364097493415
9.952,2376.697706822173
9.956,2377.934735586876
9.96,2398.0374809888585
9.964,2400.9129720522146
9.968,2394.1496207251616
9.972,2401.545372984384
9.976,2395.4856721801098
9.98,2392.0040823917275
9.984,2392.649900021125
9.988,2391.1784620414664
9.992,2392.125415464056
9.996,2393.442405049194
10.0,2408.028262480506
10.004,2410.3276199168276
10.008,2404.7523670796695
10.012,2410.992178252981
10.016,2406.3841960208065
10.02,2411.022456728785
10.024,2413.7862437156255
10.028,2405.4927119437098
10.032,2418.99188440304
10.036,2400.5229861756484
10.04,2351.937832868938
10.044,2348.3052831775267
10.048,2356.305802577069
10.052,2347.8984440223408
10.056,2355.8288958508533
10.06,2369.0125046996704
10.064,2369.4817479456265
10.068,2368.80998699378
10.072,2368.6300497134603
10.076,2370.18221092734
10.08,2379.015761073317
10.084,2380.2875232518004
10.088,2377.0384567331203
10.092,2381.2127304852816
10.096,2376.978186838302
10.1,2373.0032753112014
10.104,2374.086709484478
10.108,2370.005512084085
10.112,2378.4492196293972
10.116,2364.4328026365392
10.12,2317.9315742791
10.124,2313.3866722366806
10.128,2323.934556861599
10.132,2312.240034067293
10.136,2322.6809638431655
10.14,2331.996592524614
10.144,2330.6267603306346
10.148,2335.1739985517843
10.152,2327.477552606598
10.156,2337.190554144004
10.16,2355.0126527829707
10.164,2354.6329086109945
10.168,2357.46725297113
10.172,2349.8229641965804
10.176,2363.277521564673
10.18,2407.0625494265732
10.184,2410.980047962883
10.188,2402.089655045821
10.192,2411.8268907348574
10.196,2402.4128353687943
10.2,2385.9826094531822
10.204,2385.0774579685512
10.208,2387.160329198623
10.212,2384.6721174612157
10.216,2387.427763676466
10.22,2392.0023825652092
10.224,2391.7096604519697
10.228,2393.236260220953
10.232,2389.4219302901915
10.236,2396.3309153222435
10.24,2421.0385185058058
10.244,2423.791328557842
10.248,2416.797298167041
10.252,2426.404720628445
10.256,2413.9657906024286
10.26,2378.9493076618874
10.264,2375.526868844909
10.268,2383.867934782184
10.272,2373.573882027515
10.276,2384.4593143398124
10.28,2402.0124807746033
10.284,2401.8523608091887
10.288,2403.4342467026495
10.292,2399.406164527884
10.296,2405.0977824065385
10.3,2414.0011433513955
10.304,2412.8629097311014
10.308,2417.554709496222
10.312,2407.691598772294
10.316,2422.979119194331
10.32,2464.04946899122
10.324,2466.0028359235653
10.328,2463.7325542707717
10.332,2460.904945766939
10.336,2471.3528618601085
10.34,2517.0720734342794
10.344,2521.636154649481
10.348,2511.6344891562458
10.352,2521.15911134889
10.356,2515.0585888257274
10.36,2519.0191038328376
10.364,2520.753380415926
10.368,2516.7882201486696
10.372,2520.1325721602298
10.376,2520.595564082572
10.38,2545.0571844536585
10.384,2550.49855471497
10.388,2534.8954356065433
10.392,2559.4956817362645
10.396,2525.6689212846604
10.4,2433.876075088862
10.404,2426.969580196656
10.408,2441.2917237858733
10.412,2429.567991398477
10.416,2433.3316785290035
10.42,2401.92280283788
10.424,2395.2573027763765
10.428,2411.9371242727734
10.432,2392.9528121200833
10.436,2405.083072657625
10.44,2365.8662903961276
10.444,2351.0868919809204
10.448,2394.364521944624
10.452,2328.4602136334247
10.456,2404.8496105698055
10.46,2491.9422916433614
10.464,2467.7957251523408
10.468,2565.856297757358
10.472,2345.4762225884097
10.476,2742.0664021814523
10.48,4221.442150655785
10.484,4397.911811004949
10.488,3947.5166000114073
10.492,4554.1653379809095
10.496,3822.809534677253
10.5,2121.869072579491
10.504,2012.1104159112126
10.508,2240.904362147634
10.512,2030.8051520139124
10.516,2187.799982457474
10.52,2299.9620103665484
10.524,2288.291000124239
10.528,2322.2936270685273
10.532,2273.7592307523914
10.536,2325.0497925028394
10.54,2396.0363748183613
10.544,2393.9004922563195
10.548,2403.8007108159873
10.552,2383.3412498823823
10.556,2412.2242169790106
10.56,2481.0819495028395
10.564,2484.7286674557754
10.568,2477.8286486965485
10.572,2483.1073271513637
10.576,2479.1959143286413
10.58,2468.9794041227115
10.584,2466.952484691585
10.588,2473.006062053449
10.592,2463.1938116335446
10.596,2476.335510473238
10.6,2507.035008782894
10.604,2508.2400045946833
10.608,2506.9355761755937
10.612,2505.249922038496
10.616,2510.452498544786
10.62,2527.0185798908283
10.624,2527.171697498164
10.628,2529.0543010518763
10.632,2521.1686602837517
10.636,2537.965641107263
10.64,2603.105888542321
10.644,2609.9527409646244
10.648,2594.1091370133167
10.652,2611.2812412259836
10.656,2596.917897637426
10.66,2589.0151237011455
10.664,2591.600501545624
10.668,2583.797655602273
10.672,2595.8487881242554
10.676,2581.4610133997103
10.68,2554.9763323334
10.684,2554.6341277433016
10.688,2554.1728958644067
10.692,2556.8252226330833
10.696,2552.9569201016575
10.7,2549.00500867218
10.704,2550.3268253302194
10.708,2545.6482873209684
10.712,2554.4611279859087
10.716,2541.4526836285663
10.72,2505.9516936026857
10.724,2503.383232650288
10.728,2508.994289332988
10.732,2502.923141150609
10.736,2509.7812613645165
10.74,2531.038263317341
10.744,2534.240579819453
10.748,2525.013934945996
10.752,2539.856317733775
10.756,2518.8530081624153
10.76,2459.916024407616
10.764,2455.211318550044
10.768,2465.5731257512975
10.772,2454.921996108766
10.776,2464.3994659508644
10.78,2479.016181266473
10.784,2480.0500688243105
10.788,2476.850882566976
10.792,2483.005289054502
10.796,2472.1549967567917
10.8,2431.932786792833
10.804,2427.4729941276455
10.808,2438.193981721521
10.812,2425.554993729925
10.816,2437.8563299408183
10.82,2454.0081069421
10.824,2453.521445216844
10.828,2455.6043974475324
10.832,2451.8397264708024
10.836,2455.7259597215025
10.84,2454.9839887054823
10.844,2452.706748557951
10.848,2460.1110363272
10.852,2446.9815659890355
10.856,2466.019115426938
10.86,2518.071998992454
10.864,2521.7811593847814
10.868,2514.0922338161895
10.872,2520.9185952073553
10.876,2516.209205056676
10.88,2512.9989641230623
10.884,2512.819567235267
10.888,2513.925759820755
10.892,2510.6837510111814
10.896,2517.3096196348283
10.9,2543.0432352531343
10.904,2545.834146528546
10.908,2539.1790315184417
10.912,2547.016464245779
10.916,2539.0962513294385
10.92,2525.9877224914935
10.924,2525.704101556286
10.928,2525.808474156855
10.932,2526.921606882362
10.936,2524.0528964297155
10.94,2510.975353370271
10.944,2509.093164229249
10.948,2514.1471735550203
10.952,2506.913048231157
10.956,2515.8238055770084
10.96,2535.021513336955
10.964,2535.6616963013453
10.968,2535.141834151542
10.972,2533.683520385766
10.976,2537.4648883063523
10.98,2550.0172227942744
10.984,2550.7360350506087
10.988,2549.5684027971515
10.992,2550.018684936552
10.996,2549.844798961576
11.0,2543.9800507261566
11.004,2541.5241130879485
11.008,2549.749315074763
11.012,2534.298847119293
11.016,2558.313108875223
11.02,2630.1055990157265
11.024,2635.62084906251
11.028,2624.4513349801614
11.032,2632.942268618137
11.036,2631.0361431922515
11.04,2654.0534623549324
11.044,2657.864344517065
11.048,2649.111176016995
11.052,2657.574134252077
11.056,2653.81429718886
11.06,2675.0615612598535
11.064,2680.6109256591385
11.068,2665.310440415521
11.072,2687.3433728839127
11.076,2661.1882957945663
11.08,2610.9515722040555
11.084,2610.47177918527
11.088,2607.7105582012514
11.092,2619.9428286446846
11.096,2594.839084268498
11.1,2500.841791321518
11.104,2490.969325205889
11.108,2514.11512586086
11.112,2488.440688373409
11.116,2510.3069408500423
11.12,2519.966444469533
11.124,2514.9722296899554
11.128,2529.4153888175524
11.132,2510.2805459011965
11.136,2522.592184744384
11.14,2453.750602261466
11.144,2424.762719469984
11.148,2520.5398246108575
11.152,2339.6515815816274
11.156,2632.2335880921914
11.16,3612.6277064966584
11.164,3715.369108802135
11.168,3465.2336200541117
11.172,3773.232919511059
11.176,3443.090336186901
11.18,2847.3989489673277
11.184,2833.8027231767005
11.188,2836.8820747958475
11.192,2893.4856346817883
11.196,2765.1680504927945
11.2,2307.2659677486304
11.204,2265.436928813088
11.208,2359.626490960521
11.212,2259.9531981373125
11.216,2348.217646189526
11.22,2457.067462208806
11.224,2456.283435692907
11.228,2461.4891035077203
11.232,2451.4187240189144
11.236,2460.371428495362
11.24,2450.9471430170365
11.244,2445.184610527436
11.248,2462.2139872044486
11.252,2435.329140385146
11.256,2470.648397926861
11.26,2557.117645857046
11.264,2562.8168429617067
11.268,2550.667579431958
11.272,2562.8212457627783
11.276,2551.25192028246
11.28,2526.9637313625117
11.284,2524.6016649879502
11.288,2530.8896619254415
11.292,2521.757272786985
11.296,2533.62818564664
11.3,2563.0399859343493
11.304,2564.872119505215
11.308,2561.2219832155015
11.312,2564.3368043656974
11.316,2561.6320737763763
11.32,2551.9761239004765
11.324,2549.4238627812474
11.328,2557.9625372567384
11.332,2541.560191623188
11.336,2568.294280907794
11.34,2656.143691630248
11.344,2664.463007684622
11.348,2645.5584198454653
11.352,2665.3277016991733
11.356,2649.7233481288563
11.36,2646.0293494606494
11.364,2649.778003231339
11.368,2638.792983158253
11.372,2655.291622787671
11.376,2636.0076525367404
11.38,2602.973595087586
11.384,2603.3236897034717
11.388,2600.0140358579806
11.392,2608.7338449971508
11.396,2595.1115756023214
11.4,2561.9612655691103
11.404,2561.098463318604
11.408,2560.7524419499987
11.412,2566.594424630766
11.416,2553.3208577006635
11.42,2502.9135232606222
11.424,2497.702529191046
11.428,2510.1781707232503
11.432,2495.0723812173983
11.436,2511.618009214211
11.44,2547.0480292491266
11.444,2549.475327793804
11.448,2543.9613294417363
11.452,2550.1166145633156
11.456,2544.0150355587016
11.46,2534.9941302255947
11.464,2535.2853866022624
11.468,2533.650329592346
11.472,2537.6345532355717
11.476,2530.987823488933
11.48,2510.9698234181224
11.484,2509.5129528550015
11.488,2512.3689518981823
11.492,2510.455816473008
11.496,2510.282512259412
11.5,2500.97802036487
11.504,2499.288498748129
11.508,2503.873280221601
11.512,2497.1050510664118
11.516,2506.1617413130252
11.52,2532.0426045058844
11.524,2534.7192655862436
11.528,2527.7565293689954
11.532,2537.7208242247502
11.536,2524.319783556722
11.54,2485.938136486803
11.544,2482.3594801100653
11.548,2490.8461509003246
11.552,2480.967255867674
11.556,2490.513494499363
11.56,2500.9984875284554
11.564,2499.461665918559
11.568,2505.5300403342876
11.572,2492.5996184693176
11.576,2514.3822990306853
11.58,2588.1265707956545
11.584,2595.7458412577503
11.588,2577.294905830922
11.592,2599.8326110233393
11.596,2575.707135851181
11.6,2530.9499553370097
11.604,2529.4363979930263
11.608,2531.4159374797528
11.612,2532.225682240508
11.616,2528.105200368678
11.62,2510.9705893992923
11.624,2509.308485131547
11.628,2513.1648207960247
11.632,2508.751083253809
11.636,2513.2936109095094
11.64,2522.0108742332927
11.644,2522.455639366409
11.648,2521.6237096937302
11.652,2522.088595092453
11.656,2522.401201160491
11.66,2527.011487669555
11.664,2527.9917393092182
11.668,2525.0707276771627
11.672,2530.029568620394
11.676,2522.476077185731
11.68,2497.957460793188
11.684,2495.374262289583
11.688,2501.6669577840053
11.692,2494.090359181571
11.696,2501.44483104683
11.7,2507.9935200026807
11.704,2506.2471805245195
11.708,2512.6669394699493
11.712,2499.85592566537
11.716,2520.1315939458564
11.72,2581.0952832133394
11.724,2585.7007299111356
11.728,2576.690891604412
11.732,2582.19770299244
11.736,2585.1399718712264
11.74,2631.109254703147
11.744,2639.376538340927
11.748,2617.1001284822273
11.752,2648.8219053147527
11.756,2610.0528054094993
11.76,2524.8916515110673
11.764,2521.1167708924722
11.768,2526.5336461159063
11.772,2527.9592755843423
11.776,2516.4326354614077
11.78,2459.894667121232
11.784,2453.8346693552444
11.788,2467.2956852420025
11.792,2454.69142336194
11.796,2460.794242748021
11.8,2435.9210424679072
11.804,2429.5456118725865
11.808,2445.7838238150807
11.812,2427.1400394143034
11.816,2438.161669199274
11.82,2386.8125495817662
11.824,2368.2187039628448
11.828,2424.772398546781
11.832,2331.613034237458
11.836,2456.943891051069
11.84,2736.3109979568044
11.844,2738.0359914142596
11.848,2766.370723835975
11.852,2648.72688891386
11.856,2908.3426473272675
11.86,4011.1606231063333
11.864,4154.3905139009785
11.868,3781.689323277586
11.872,4295.591760667726
11.876,3665.3762036426983
11.88,2179.883606386518
11.884,2083.715334913493
11.888,2284.4050378531465
11.892,2101.100017544222
11.896,2236.5097915444253
11.9,2328.9580296826175
11.904,2319.114982991501
11.908,2346.9784204778716
11.912,2308.835202220835
11.916,2347.255798242873
11.92,2396.025427746041
11.924,2394.705113598112
11.928,2400.066948360233
11.932,2390.50827766967
11.936,2401.633605294344
11.94,2420.0183034306965
11.944,2420.6688878353757
11.948,2418.6510006637145
11.952,2423.346250729447
11.956,2412.864996310803
11.96,2363.899095323962
11.964,2357.0881160432727
11.968,2374.8341661161885
11.972,2350.5832765620503
11.976,2379.5770458647885
11.98,2444.088193808316
11.984,2447.775622868262
11.988,2440.4349479863836
11.992,2446.4674139967947
11.996,2442.574234895606
12.0,2439.9984171619435
12.004,2439.721638176572
12.008,2441.173063560208
12.012,2437.1685193893395
12.016,2445.3407227063835
12.02,2478.062031595831
12.024,2481.7477038211255
12.028,2473.0557754530414
12.032,2482.5902180739586
12.036,2475.0300715844196
12.04,2476.024483758333
12.044,2478.7434898462875
12.048,2470.7203021862406
12.052,2483.002610137728
12.056,2468.139841548473
12.06,2439.97074699168
12.064,2439.5492739606375
12.068,2439.2158223997108
12.072,2441.7417373903245
12.076,2438.3206800182265
12.08,2438.0145410374826
12.084,2439.923185713672
12.088,2434.0612332683177
12.092,2443.0613463842087
12.096,2433.3557816064085
12.1,2427.019163454116
12.104,2430.360999968934
12.108,2419.053184599174
12.112,2439.3887506570504
12.116,2410.722270669609
12.12,2339.9017403335442
12.124,2336.195977128228
12.128,2342.9335941527897
12.132,2338.121267026556
12.136,2342.9529171579366
12.14,2373.0856052192607
12.144,2381.012178479218
12.148,2356.698021747063
12.152,2397.3348743733236
12.156,2341.5542247626163
12.16,2208.826977138487
12.164,2204.0773485325144
12.168,2207.5891142676614
12.172,2220.0627899391675
12.176,2188.820669763714
12.18,2095.887623400962
12.184,2096.1990130647664
12.188,2081.1127244551717
12.192,2135.530174239347
12.196,2022.6572878565917
12.2,1589.1929183057218
12.204,1543.8145619962213
12.208,1649.0561025431277
12.212,1535.249997186246
12.216,1629.5782269840442
12.22,1675.873402603323
12.224,1658.3841308288336
12.228,1709.7461266704724
12.232,1634.5022871427143
12.236,1715.988174200476
12.24,1815.0070451780855
12.244,1804.9415911120293
12.248,1841.4839614434648
12.252,1775.4802830534277
12.256,1861.048322689792
12.26,2018.1314713994768
12.264,2014.6428221519895
12.268,2038.5647709502318
12.272,1978.0025594207575
12.276,2075.6696196269404
12.28,2336.3677374614886
12.284,2348.2739170845957
12.288,2333.867885649119
12.292,2320.047833067932
12.296,2372.474483008114
12.3,2583.365145976271
12.304,2599.8392971269395
12.308,2569.301752298572
12.312,2583.8764426812186
12.316,2599.9923573427072
12.32,2742.2998732440637
12.324,2759.0068452169826
12.328,2722.6368258535226
12.332,2754.7408752032334
12.336,2741.638267741233
12.34,2805.1881625382243
12.344,2818.1619608997057
12.348,2786.808718460282
12.352,2821.311409267485
12.356,2795.96216102686
12.36,2810.10549587222
12.364,2819.7428045197644
12.368,2793.557669601452
12.372,2828.890448633206
12.376,2792.286134778336
12.38,2744.978751640321
12.384,2747.036100920819
12.388,2739.358937229836
12.392,2752.0605051919824
12.396,2739.547873171306
12.4,2739.042439028544
12.404,2743.9848704558945
12.408,2729.171541230877
12.412,2752.1646951116895
12.416,2723.9668433567276
12.42,2666.9296789016717
12.424,2664.70905877155
12.428,2668.8825577577263
12.432,2664.5915105541617
12.436,2672.193647454959
12.44,2713.0966954560718
12.444,2719.938634903838
12.448,2701.680537433161
12.452,2726.715029916489
12.456,2698.639229562058
12.46,2651.9600778920326
12.464,2652.5531106453086
12.468,2647.4773462631806
12.472,2660.9734717277674
12.476,2638.66680562231
12.48,2573.8956300932505
12.484,2569.224293620127
12.488,2578.8297963278897
12.492,2570.8847034107644
12.496,2574.4465962218555
12.5,2561.959235358769
12.504,2559.0502991080016
12.508,2565.709277432812
12.512,2561.385918121246
12.516,2552.355019510663
12.52,2425.6226695172427
12.524,2391.204998322008
12.528,2502.44748450314
12.532,2294.250137661424
12.536,2635.722589532831
12.54,3822.278664835365
12.544,3955.523326391974
12.548,3620.290568148369
12.552,4057.384912132573
12.556,3553.1724532605635
12.56,2491.559996929913
12.564,2441.262473674896
12.568,2527.1401855335653
12.572,2494.4144273107845
12.576,2451.7565923962998
12.58,2140.3606754919997
12.584,2105.9641829739157
12.588,2183.41596563202
12.592,2104.619336713622
12.596,2164.914155538273
12.6,2186.914946276515
12.604,2177.1876139671667
12.608,2204.269351412591
12.612,2166.75884498818
12.616,2206.886741928829
12.62,2268.0515901315316
12.624,2267.868021201032
12.628,2271.077557195756
12.632,2262.819379938158
12.636,2273.854303952839
12.64,2292.0118970007234
12.644,2291.273781751091
12.648,2294.913743941344
12.652,2286.582052389334
12.656,2300.277549140244
12.66,2344.0801044381915
12.664,2348.442521645576
12.668,2337.7680465926196
12.672,2351.0780813542156
12.676,2336.515044618935
12.68,2309.9707400584794
12.684,2309.612399475124
12.688,2308.7764688985303
12.692,2313.3529710865087
12.696,2304.378632490655
12.7,2274.9487577775294
12.704,2272.483270355388
12.708,2278.1108687451288
12.712,2271.4914219428724
12.716,2279.737968471708
12.72,2308.0622067453214
12.724,2312.4813559797585
12.728,2299.7738073002047
12.732,2319.953522597073
12.736,2292.0491688250827
12.74,2217.880744090395
12.744,2212.7125170403892
12.748,2223.425755968295
12.752,2213.903478972449
12.756,2220.8523948190973
12.76,2230.016256673863
12.764,2231.5826011525123
12.768,2225.846287425335
12.772,2237.92330090508
12.776,2217.0147122261033
12.78,2144.863623679444
12.784,2137.574941280742
12.788,2155.001380853341
12.792,2134.141491049223
12.796,2156.477574635428
12.8,2202.0671631303676
12.804,2205.0743185037873
12.808,2198.0279571814112
12.812,2206.582942866211
12.816,2196.72136769158
12.82,2174.9688894047963
12.824,2173.8751272421023
12.828,2175.8297936934096
12.832,2174.5516738166193
12.836,2175.745494460491
12.84,2185.030405597991
12.844,2187.9155279219653
12.848,2178.5958972473827
12.852,2195.394772345468
12.856,2170.1311200016917
12.86,2097.879423974516
12.864,2092.7005490823135
12.868,2103.0171446984987
12.872,2095.4676911957704
12.876,2097.1719828976193
12.88,2079.956219593522
12.884,2077.6223022566264
12.888,2082.321927051162
12.892,2079.4628688796647
12.896,2077.568478846793
12.9,2053.944220541895
12.904,2050.767998643448
12.908,2057.982591798374
12.912,2050.955797777362
12.916,2054.955102082176
12.92,2046.9692158974196
12.924,2044.825465971777
12.928,2049.951339183788
12.932,2044.714590814996
12.936,2047.3243377073184
12.94,2035.9605383148912
12.944,2033.02287468473
12.948,2040.7928580572618
12.952,2030.5893740194927
12.956,2040.9263814539918
12.96,2051.9973433651585
12.964,2050.415315224883
12.968,2056.2693560979733
12.972,2044.6997525170784
12.976,2062.891230498633
12.98,2120.1070934866707
12.984,2125.8123230266424
12.988,2111.742804120945
12.992,2129.6469359858233
12.996,2109.274606722964
13.0,2067.946156965585
13.004,2066.684609617541
13.008,2067.227572714186
13.012,2072.368448253161
13.016,2058.887164449361
13.02,2002.8865434207892
13.024,1996.8213780524868
13.028,2011.0766415159624
13.032,1995.1702556229905
13.036,2009.365030425168
13.04,2022.9991685381394
13.044,2021.8004641906791
13.048,2025.5286144567651
13.052,2020.187795205651
13.056,2024.7672225313138
13.06,2020.9713504097383
13.064,2018.1626877372737
13.068,2026.6226788052052
13.072,2013.0946500723062
13.076,2030.6724842129593
13.08,2070.054438810671
13.084,2071.569175574235
13.088,2069.833433798415
13.092,2067.85575526122
13.096,2074.7857907385064
13.1,2103.0542882881405
13.104,2105.6023489000418
13.108,2100.326952253219
13.112,2104.2152359411125
13.116,2104.701510982799
13.12,2130.074875496302
13.124,2135.779508368516
13.128,2119.071251982594
13.132,2146.1320464446417
13.136,2108.0515603714216
13.14,2003.8241883484498
13.144,1996.518326445953
13.148,2010.602163427472
13.152,2002.5458393798556
13.156,1996.971734978267
13.16,1924.8157579415022
13.164,1913.3010936969124
13.168,1942.064330183466
13.172,1907.8504548010187
13.176,1936.865137150444
13.18,1932.8852402994821
13.184,1920.5994522171795
13.188,1957.7796059148873
13.192,1900.4552082625478
13.196,1964.4847813045644
13.2,2009.8423565674623
13.204,1980.919243711678
13.208,2091.467798004228
13.212,1853.4501929570674
13.216,2273.5418061049977
13.22,3816.1977268588475
13.224,3998.0365922458104
13.228,3531.7533094175687
13.232,4161.0971157765225
13.236,3399.9628794195196
13.24,1628.1985384905097
13.244,1514.604834151731
13.248,1752.0937550623112
13.252,1536.162691444107
13.256,1692.5842633049374
13.26,1775.8761199890876
13.264,1759.4725039976615
13.268,1805.6945899818588
13.272,1740.9839948799624
13.276,1810.8768215409584
13.28,1922.109718714878
13.284,1922.942236755664
13.288,1925.2140249848446
13.292,1916.0471027614701
13.296,1927.9722887668308
13.3,1937.9806870321142
13.304,1934.5925259023895
13.308,1945.8638251026894
13.312,1926.102932001022
13.316,1953.4614943437252
13.32,2022.1103788270777
13.324,2026.5382552475705
13.328,2017.13069056338
13.332,2026.5924738024173
13.336,2016.907289577978
13.34,1990.945455296868
13.344,1987.4514043822574
13.348,1997.3648304232217
13.352,1981.7929460218133
13.356,2003.3978029649359
13.36,2062.1012609054033
13.364,2066.413466644792
13.368,2057.4270157421383
13.372,2065.003051797784
13.376,2061.5264172274447
13.38,2073.040546998487
13.384,2075.8437059182047
13.388,2068.571675721477
13.392,2077.84731619404
13.396,2068.754132516703
13.4,2060.0043597947824
13.404,2061.3667769284148
13.408,2056.845706943054
13.412,2064.3035267511227
13.416,2055.642485579118
13.42,2046.0064170787116
13.424,2048.094589939248
13.428,2040.3265310294028
13.432,2055.6467104012713
13.436,2032.2907195209145
13.44,1967.893016668378
13.444,1963.989390540443
13.448,1970.6705921283979
13.452,1969.045626231772
13.456,1961.724498414278
13.46,1912.8852210832865
13.464,1906.2922130583902
13.468,1922.9348703778899
13.472,1901.3149579541791
13.476,1926.2359425681793
13.48,1982.0915899898594
13.484,1986.193200130845
13.488,1976.33147238433
13.492,1988.8649886590313
13.496,1973.57995207793
13.5,1935.9376136464102
13.504,1933.5533247254873
13.508,1937.9249285329515
13.512,1936.0388028255259
13.516,1932.9401258141863
13.52,1905.9327867765548
13.524,1901.966710205317
13.528,1911.9353923770236
13.532,1899.4919146381403
13.536,1912.1422541232637
13.54,1929.0084797606014
13.544,1928.0314947997783
13.548,1932.360090350825
13.552,1922.7648811960619
13.556,1938.715479158577
13.56,1991.1041131623656
13.564,1996.451234004922
13.568,1983.2679784110878
13.572,1999.9691952104215
13.576,1981.0469086557168
13.58,1941.9437114525024
13.584,1940.2611771355648
13.588,1942.7154441197258
13.592,1943.2982955926411
13.596,1938.0196816917944
13.6,1909.934918044262
13.604,1906.1464577564445
13.608,1916.1349586284748
13.612,1901.8860244024752
13.616,1920.6364215028332
13.62,1973.1000520287087
13.624,1978.1379377195035
13.628,1965.6894978238718
13.632,1981.4721447102036
13.636,1963.8593589573331
13.64,1930.9605351188038
13.644,1930.5559586357583
13.648,1929.182359321404
13.652,1936.0105507353207
13.656,1922.3358259964316
13.66,1875.9122512183635
13.664,1872.1780174030018
13.668,1879.7425942601058
13.672,1874.1897107974248
13.676,1874.8248336628105
13.68,1855.9474689686797
13.684,1852.9277671100883
13.688,1860.0872036981687
13.692,1852.3977459261666
13.696,1858.0446715097578
13.7,1855.9781923495852
13.704,1854.222988210067
13.708,1858.7589710627715
13.712,1853.4126789137301
13.716,1857.2569166946835
13.72,1851.9710923511375
13.724,1849.6717870770908
13.728,1855.9003506969889
13.732,1847.796789680291
13.736,1854.868435135306
13.74,1850.9572503805289
13.744,1846.4703944749267
13.748,1861.169414748715
13.752,1834.3803040208936
13.756,1875.4182110424767
13.76,2001.2435829712472
13.764,2012.8242552023537
13.768,1985.6138231855878
13.772,2016.8478919197464
13.776,1986.0155652388391
13.78,1939.9575345041296
13.784,1940.384230591161
13.788,1936.1244435044782
13.792,1947.991286844074
13.796,1927.6671690538503
13.8,1865.8875572063155
13.804,1861.4005621344518
13.808,1870.0851982742236
13.812,1864.9471381263463
13.816,1862.272054110415
13.82,1823.8991126993549
13.824,1818.2026047870631
13.828,1831.6701478787595
13.832,1817.9186468504033
13.836,1824.7818832874225
13.84,1788.8613077657972
13.844,1778.3959548767511
13.848,1807.5511121817528
13.852,1767.1359228721024
13.856,1806.4673394998604
13.86,1797.7726860765997
13.864,1769.7717833080721
13.868,1870.4298930417845
13.872,1663.7483890062072
13.876,2020.3065116900545
13.88,3309.794000151659
13.884,3460.616428420715
13.888,3073.417072910397
13.892,3596.5833438280238
13.896,2962.446458128734
13.9,1480.530027347094
13.904,1384.5247276569771
13.908,1587.0790574309592
13.912,1398.614265365935
13.916,1542.9151923418149
13.92,1662.0006313491556
13.924,1654.302854604362
13.928,1677.4725540433042
13.932,1644.0319215149755
13.936,1678.6433095386792
13.94,1725.0350248635402
13.944,1724.5800280509955
13.948,1726.828170978015
13.952,1723.4824368639358
13.956,1724.4144034708836
13.96,1708.9519641582622
13.964,1706.1542614070413
13.968,1712.6454512931998
13.972,1706.2722272208898
13.976,1709.6252759144522
13.98,1700.96812879297
13.984,1699.1644017483975
13.988,1702.971954909782
13.992,1700.428203481434
13.996,1699.02352577287
14.0,1678.948135612439
14.004,1676.2693882201056
14.008,1682.235714704459
14.012,1676.6991546438944
14.016,1679.6745505292406
14.02,1675.9877850990927
14.024,1675.8747273641266
14.028,1674.2219759571722
14.032,1681.753279879793
14.036,1664.2353318980902
14.04,1590.8375633652986
14.044,1582.7754757585008
14.048,1601.5071010061397
14.052,1581.5611456124263
14.056,1597.1925680140498
14.06,1599.9632220203587
14.064,1596.5499704543952
14.068,1605.7663586110275
14.072,1594.0846765848717
14.076,1603.8595982277457
14.08,1600.9564930663826
14.084,1597.032159899431
14.088,1608.3204642663125
14.092,1591.827722052338
14.096,1610.4580397207076
14.1,1639.0214775201891
14.104,1638.0473417777298
14.108,1642.924989832159
14.112,1632.024503467891
14.116,1648.8692016509324
14.12,1696.0874686021607
14.124,1699.942091915232
14.128,1690.5834033018193
14.132,1702.946532944898
14.136,1686.3745576851547
14.14,1634.8909876801765
14.144,1629.3363506046737
14.148,1643.1122412081631
14.152,1625.9145487645117
14.156,1644.3098588469243
14.16,1677.0432486448897
14.164,1678.2351090718842
14.168,1675.6865108179368
14.172,1679.338534141912
14.176,1671.87226307541
14.18,1633.9020764201903
14.184,1628.1193081885199
14.188,1643.1616171438436
14.192,1623.6018965722662
14.196,1643.6001424105712
14.2,1664.9923111787396
14.204,1661.6534168407172
14.208,1673.7509126487694
14.212,1650.943017015617
14.216,1683.67971721139
14.22,1764.1266665710323
14.224,1767.4502621101778
14.228,1763.9087681091078
14.232,1758.0555916448868
14.236,1777.467493416798
14.24,1860.1805601217907
14.244,1868.7140595789022
14.248,1848.9790758884724
14.252,1870.4435800856666
14.256,1851.3862692283249
14.26,1829.988495533497
14.264,1830.5750144035342
14.268,1828.53785673954
14.272,1831.3552232651364
14.276,1829.9026715266527
14.28,1839.034954824182
14.284,1841.4917076489157
14.288,1834.6970925730175
14.292,1844.4771368647641
14.296,1832.6970722897456
14.3,1806.9574475474437
14.304,1805.2187935208801
14.308,1809.7350484374579
14.312,1802.4726676979715
14.316,1815.0915876878507
14.32,1868.1312035004655
14.324,1875.8109166836657
14.328,1854.980373852886
14.332,1885.1803598784772
14.336,1846.9557912446996
14.34,1756.849381551678
14.344,1751.679318158421
14.348,1761.6422400852964
14.352,1754.4455328524084
14.356,1757.811860478795
14.36,1759.0080103247412
14.364,1760.5178281357105
14.368,1754.227236396738
14.372,1768.4593644106455
14.376,1743.5416383517424
14.38,1659.827644207428
14.384,1652.2058916361436
14.388,1669.30954319367
14.392,1651.8543739937663
14.396,1665.8969409688855
14.4,1676.9983735276537
14.404,1676.367418407784
14.408,1677.4835684444304
14.412,1678.1925005992475
14.416,1672.6643024067648
14.42,1639.9186999646456
14.424,1635.8138293143859
14.428,1645.2764928223016
14.432,1635.8118103440058
14.436,1641.3701247501124
14.44,1628.944171267394
14.444,1625.0668351286379
14.448,1635.5111970318653
14.452,1621.2654369026354
14.456,1637.085878544361
14.46,1666.0409256720634
14.464,1667.3833489717472
14.468,1663.9754275974622
14.472,1669.6616083958922
14.476,1659.2597220922894
14.48,1617.9066156720912
14.484,1613.6757859593279
14.488,1622.3836236332384
14.492,1617.0901052222011
14.496,1611.749500712161
14.5,1544.8043543572342
14.504,1533.1484823303433
14.508,1563.238566283659
14.512,1525.562249534969
14.516,1559.5719954568024
14.52,1558.8493781005695
14.524,1542.2710572055723
14.528,1597.9000711986546
14.532,1494.4253263784917
14.536,1654.2930703983136
14.54,2141.98554754988
14.544,2184.888684161747
14.548,2087.2342983265335
14.552,2190.2581658115673
14.556,2104.621799534541
14.56,2059.140242206157
14.564,2077.6725100929016
14.568,2016.4192354976276
14.572,2126.8239126348703
14.576,1962.2786536329663
14.58,1477.023645007316
14.584,1433.8475527297317
14.588,1535.7585049322347
14.592,1416.3094005510595
14.596,1541.8233977080727
14.6,1781.365171395903
14.604,1792.722561134321
14.608,1770.7495330845925
14.612,1787.664826657907
14.616,1777.4320288240647
14.62,1774.009542994114
14.624,1774.9099897202564
14.628,1772.227796467554
14.632,1776.895472577386
14.636,1769.1571931859542
14.64,1738.9255415754685
14.644,1734.7327068594361
14.648,1746.0836978024856
14.652,1729.5899696290567
14.656,1750.7577309132173
14.66,1803.0946980913998
14.664,1806.701121470212
14.668,1798.8658133243002
14.672,1806.7577128516725
14.676,1799.6076512375612
14.68,1787.98308530138
14.684,1787.4372507871672
14.688,1788.5713411713643
14.692,1787.5293581280303
14.696,1788.3804017876478
14.7,1790.0044740893838
14.704,1790.471175284533
14.708,1788.5095362370228
14.712,1793.4346691053772
14.716,1783.21167302088
14.72,1737.8848876401232
14.724,1731.3966859603934
14.728,1748.9643755994314
14.732,1723.395257608282
14.736,1756.3875134726106
14.74,1839.1523676729405
14.744,1844.9849681129645
14.748,1832.378483463808
14.752,1844.595122912566
14.756,1835.0090223008397
14.76,1829.0099849088224
14.764,1830.539282545312
14.768,1825.3326551993448
14.772,1835.1604860112236
14.776,1819.6113822975867
14.78,1768.8892983915564
14.784,1763.6548587065076
14.788,1776.5059143170008
14.792,1760.6131287631288
14.796,1777.6801208479476
14.8,1808.0396085031641
14.804,1808.6386531984679
14.808,1808.6880201350898
14.812,1805.6235883997686
14.816,1812.112298782947
14.82,1834.045767034858
14.824,1836.04556760884
14.828,1831.2161764772293
14.832,1837.3908035237555
14.836,1829.5257962194037
14.84,1805.9469705192134
14.844,1803.2236172529845
14.848,1810.3918251947896
14.852,1800.3499011079116
14.856,1812.8966296868311
14.86,1843.0546775330206
14.864,1845.125779771957
14.868,1840.4551759864617
14.872,1845.7986110318582
14.876,1839.4806876764258
14.88,1820.957619911001
14.884,1818.7373758908018
14.888,1824.5994194884738
14.892,1816.5066237175868
14.896,1826.0226980936518
14.9,1844.0224413266035
14.904,1844.0688440329534
14.908,1845.4773310932708
14.912,1840.3308143383797
14.916,1850.364340349799
14.92,1886.0790100117258
14.924,1889.6871134835244
14.928,1881.0019558187435
14.932,1891.4395567582374
14.936,1880.3735009091167
14.94,1859.9708059824832
14.944,1859.3639254518428
14.948,1859.7963602687698
14.952,1861.715295313937
14.956,1856.046905323465
14.96,1828.929794985213
14.964,1825.0454219791584
14.968,1835.6184566145598
14.972,1819.9612433932073
14.976,1840.896776436756
14.98,1898.1158004748772
14.984,1903.0923034413133
14.988,1891.202504649157
14.992,1905.4950657544941
14.996,1890.0658503411805
15.0,1860.958761117508
15.004,1860.2860918077831
15.008,1859.9993152940856
15.012,1864.9419665674377
15.016,1852.9157327599066
15.02,1801.8760079161696
15.024,1795.7011100871086
15.028,1811.2533658254936
15.032,1791.27638145032
15.036,1813.622274748961
15.04,1858.0702199350342
15.044,1860.199623565736
15.048,1855.8692593245355
15.052,1860.1476282118122
15.056,1855.01294728841
15.06,1836.9545800755004
15.064,1834.5774089306872
15.068,1840.5066156327389
15.072,1833.5864708747772
15.076,1838.9906296715787
15.08,1833.9601673079148
15.084,1830.651352419418
15.088,1840.5433331513912
15.092,1825.0756574806758
15.096,1844.2258627231397
15.1,1880.0413759550784
15.104,1879.717707876695
15.108,1883.699181350782
15.112,1872.1646015383178
15.116,1891.8426675397554
15.12,1947.098809704373
15.124,1949.7268169211493
15.128,1946.7471257175475
15.132,1942.3118022123253
15.136,1958.2701281838902
15.14,2030.1716843750387
15.144,2038.0292114987271
15.148,2019.5897004334458
15.152,2039.9149150194135
15.156,2022.2790955779415
15.16,2009.0152637209503
15.164,2011.6430000332468
15.168,2003.0535184023938
15.172,2017.8318541978408
15.176,1997.6175429962682
15.18,1947.9117659238543
15.184,1945.212993768174
15.188,1949.7185876327621
15.192,1949.0644901680844
15.196,1942.8480855247403
15.2,1902.893365589873
15.204,1897.5499026379093
15.208,1910.4055977594983
15.212,1896.5207182024105
15.216,1905.2997437907397
15.22,1879.8716070736555
15.224,1870.133573716006
15.228,1899.0850867544186
15.232,1853.9601600730705
15.236,1908.7464915983437
15.24,1989.0094131991298
15.244,1976.908734811433
15.248,2031.1580791575777
15.252,1900.7873728405207
15.256,2144.710556041794
15.26,3083.293692523478
15.264,3198.3070971686648
15.268,2898.992266873795
15.272,3310.552057981947
15.276,2803.531622054946
15.28,1593.748920699194
15.284,1512.5856182574494
15.288,1687.113316771821
15.292,1518.2585136208947
15.296,1656.3246022002577
15.3,1804.0947048511505
15.304,1801.0672401462411
15.308,1813.3091116356543
15.312,1791.7031047567434
15.316,1816.2248743267676
15.32,1852.0317262325955
15.324,1851.633861878206
15.328,1853.8721252743633
15.332,1849.7491376381429
15.336,1853.2877650091807
15.34,1849.9762102236834
15.344,1848.4107438929443
15.348,1852.1735720454515
15.352,1848.6119208356345
15.356,1849.2364507920006
15.36,1832.9437539157232
15.364,1829.7200917541143
15.368,1837.9164329741334
15.372,1828.0094088887367
15.376,1836.602905359782
15.38,1837.9716178656192
15.384,1835.2490469050003
15.388,1843.4970754481467
15.392,1830.5639959494063
15.396,1846.3837547094688
15.4,1875.0318089320897
15.404,1874.5480266850388
15.408,1878.6826875797917
15.412,1866.8856040955807
15.416,1888.6741468829662
15.42,1965.176033476551
15.424,1973.0940382251642
15.428,1953.7373976048777
15.432,1977.6137493904291
15.436,1951.5673837601066
15.44,1900.9197139451985
15.444,1898.764682214526
15.448,1902.5186423771354
15.452,1900.5837763270822
15.456,1900.7240087724551
15.46,1900.0044268756242
15.464,1900.7819380776566
15.468,1897.8764021803847
15.472,1903.5310084727976
15.476,1895.4424099250014
15.48,1878.9830242317125
15.484,1879.7511620346593
15.488,1875.0219845411896
15.492,1887.7225934670023
15.496,1864.1624524500332
15.5,1781.8136009292946
15.504,1773.9994628213344
15.508,1791.8046990917028
15.512,1773.2322099193284
15.516,1788.314615429329
15.52,1797.9869233863544
15.524,1796.3399777972948
15.528,1800.7761136193906
15.532,1795.506855367861
15.536,1798.9132075979528
15.54,1791.9659769905682
15.544,1789.9451001940504
15.548,1794.7629492579063
15.552,1790.1290426080304
15.556,1791.419230916224
15.56,1773.937007584842
15.564,1770.363690882551
15.568,1779.3467143020393
15.572,1768.8744077606968
15.576,1777.0789328593444
15.58,1772.9554402005213
15.584,1769.5808340018132
15.588,1778.8694445512708
15.592,1766.5619095974907
15.596,1777.7801643452124
15.6,1777.9519777275743
15.604,1773.4084779218315
15.608,1787.5039854473298
15.612,1764.4888949031492
15.616,1794.3976515759864
15.62,1859.1015455546178
15.624,1861.1019612872913
15.628,1859.4896486355487
15.632,1855.0163502312316
15.636,1866.0992232712051
15.64,1900.0616868007046
15.644,1901.49974046139
15.648,1900.0473501792326
15.652,1897.6008804676937
15.656,1904.4455165786248
15.66,1924.0279768291302
15.664,1923.7620835506357
15.668,1927.293333736327
15.672,1916.085557008924
15.676,1937.749730932397
15.68,2014.1744031325366
15.684,2021.3447940975684
15.688,2005.056149578356
15.692,2021.9770711516915
15.696,2008.2667115268064
15.7,2000.0152275682328
15.704,2001.8684645138678
15.708,1996.456960519487
15.712,2004.2171719571404
15.716,1996.1435756192038
15.72,1988.0046188144024
15.724,1989.312849821793
15.728,1984.8484488121803
15.732,1992.5469578308891
15.736,1982.9185800041269
15.74,1967.993167383472
15.744,1969.4196595630988
15.748,1963.1189102790604
15.752,1977.1968296998082
15.756,1954.0035277834734
15.76,1884.8592378488454
15.764,1880.2931197913113
15.768,1888.2784141301538
15.772,1886.271986372164
15.776,1877.1127907342136
15.78,1816.839301805414
15.784,1809.778293971923
15.788,1825.3608137338206
15.792,1811.9134807833323
15.796,1814.9390964243137
15.8,1763.8142843380622
15.804,1753.074157400158
15.808,1781.5224175380554
15.812,1743.861893791601
15.816,1783.126769027392
15.82,1832.0136411780597
15.824,1827.8896272297436
15.828,1843.59636471607
15.832,1813.82539955261
15.836,1854.612924383567
15.84,1941.1244781738349
15.844,1942.1603098191845
15.848,1945.9043136927148
15.852,1928.3813588132323
15.856,1960.9762723774506
15.86,2055.176644459373
15.864,2059.578116548785
15.868,2054.6264324574463
15.872,2047.4257515486186
15.876,2072.451964238728
15.88,2178.2520985266956
15.884,2188.3355808202846
15.888,2166.2597581163636
15.892,2186.778799094403
15.896,2174.5181173242427
15.9,2189.0824638070912
15.904,2194.0851264437115
15.908,2181.1963634230974
15.912,2197.227977458607
15.916,2182.1093652811423
15.92,2169.011383107312
15.924,2171.358995899458
15.928,2163.3319399527136
15.932,2177.991772518459
15.936,2156.3665926061726
15.94,2093.863471281778
15.944,2088.339456875937
15.948,2101.5352209343096
15.952,2085.7055481583484
15.956,2102.9676476413374
15.96,2139.0672293619323
15.964,2141.556467676375
15.968,2135.233065278461
15.972,2144.655886292699
15.976,2129.787344051345
15.98,2073.8537434259238
15.984,2066.7144432479195
15.988,2085.116860512257
15.992,2061.1204037991547
15.996,2086.8960238399814
16.0,2125.030782523376
16.004,2123.5876939274644
16.008,2130.3367904888373
16.012,2116.434028918795
16.016,2134.745041319134
16.02,2162.006914647055
16.024,2159.056701087127
16.028,2170.5414358752555
16.032,2148.9410425883557
16.036,2175.800090754823
16.04,2199.93283088525
16.044,2188.6289934776505
16.048,2231.306851982103
16.052,2143.3185885978646
16.056,2287.1014563203407
16.06,2732.971917777091
16.064,2767.566662427197
16.068,2698.7272675328345
16.072,2741.3697394595915
16.076,2765.51467088554
16.08,3143.2484867560447
16.084,3213.6282130368113
16.088,3018.204224351665
16.092,3309.6946722238854
16.096,2929.1148108111765
16.1,1966.0488307908208
16.104,1896.7078596267893
16.108,2049.853086897121
16.112,1892.9198616144074
16.116,2033.3194158658862
16.12,2231.2462377225766
16.124,2234.864262430825
16.128,2231.3178040220814
16.132,2227.47429182821
16.136,2235.633219973105
16.14,2249.0046792274397
16.144,2247.72938205234
16.148,2252.928294879844
16.152,2242.029538128001
16.156,2259.448464538797
16.16,2313.121315365585
16.164,2317.961018292996
16.168,2306.5768357441107
16.172,2319.677161484381
16.176,2306.339177648744
16.18,2281.958219012381
16.184,2280.5164322302776
16.188,2284.3605940429957
16.192,2277.900021237652
16.196,2289.460214445278
16.2,2338.135206461276
16.204,2345.0203495609812
16.208,2326.430658640906
16.212,2353.127254393446
16.216,2319.5550130851575
16.22,2240.8510762366423
16.224,2236.332968673453
16.228,2245.060912879709
16.232,2239.0027047761923
16.236,2240.7379258798114
16.24,2231.9731580754546
16.244,2231.0443868876505
16.248,2232.4540974756997
16.252,2233.0053352968066
16.256,2228.904244327257
16.26,2207.9454348531444
16.264,2205.688273446211
16.268,2210.7533129588187
16.272,2205.8361431498433
16.276,2209.007158684705
16.28,2206.9851671519205
16.284,2206.2268215470012
16.288,2207.660406988491
16.292,2207.5257037207525
16.296,2204.140443525737
16.3,2179.9266348687515
16.304,2176.264897448002
16.308,2185.5611869461113
16.312,2174.084142229855
16.316,2184.8941732921694
16.32,2191.9798246253017
16.324,2189.3598693662902
16.328,2198.0313830125538
16.332,2182.9314342480848
16.336,2203.423975749538
16.34,2249.073411799272
16.344,2250.0233013414727
16.348,2251.210915517974
16.352,2241.6670029406437
16.356,2262.8361947953713
16.36,2343.19771203896
16.364,2351.3189947733513
16.368,2332.2599058747896
16.372,2353.4952050189354
16.376,2334.068448063547
16.38,2311.989664540227
16.384,2313.1237442085962
16.388,2308.858117504961
16.392,2316.6315563351313
16.396,2306.575004345379
16.4,2286.9728358783354
16.404,2286.854616034429
16.408,2285.7020893025237
16.412,2290.2534343461093
16.416,2281.3962542235113
16.42,2249.9225166969145
16.424,2246.5939988909313
16.428,2254.9644793046
16.432,2243.9495985870794
16.436,2257.3089886622256
16.44,2290.0686493555927
16.444,2292.5720513997903
16.448,2286.8293564681044
16.452,2293.1515528192185
16.456,2287.070636596312
16.46,2277.9890615836366
16.464,2277.9388960449737
16.468,2277.6745296424647
16.472,2278.602261988559
16.476,2277.4550966369943
16.48,2278.010543530177
16.484,2279.1025440178405
16.488,2275.119051547994
16.492,2283.4625337698876
16.496,2268.6867428281093
16.5,2212.8511820919857
16.504,2205.7486980879767
16.508,2224.858102531276
16.512,2196.929544100062
16.516,2234.186926644127
16.52,2336.2279982470245
16.524,2345.0276173309353
16.528,2324.2096258902657
16.532,2348.400403987798
16.536,2323.8644992018053
16.54,2284.9531800942214
16.544,2285.1561059117316
16.548,2281.6648876613813
16.552,2292.614931873611
16.556,2272.131174292856
16.56,2200.8260549788592
16.564,2193.75930243402
16.568,2210.6247200782873
16.572,2190.9430242655344
16.576,2210.750525718068
16.58,2243.045530140385
16.584,2243.7758833228313
16.588,2243.0305179133948
16.592,2242.2174836638615
16.596,2244.2438675428775
16.6,2250.012524026094
16.604,2250.5918113466882
16.608,2248.725507114412
16.612,2252.4903975359884
16.616,2245.5955856039677
16.62,2219.935988903976
16.624,2217.5273391418546
16.628,2222.3544609607457
16.632,2219.8393480948503
16.636,2215.751841367569
16.64,2172.857068086279
16.644,2165.287716371398
16.648,2185.678503292882
16.652,2157.3205899270474
16.656,2190.1706065820536
16.66,2251.087556018736
16.664,2251.9133108819424
16.668,2253.2836574013363
16.672,2245.2070905530322
16.676,2259.315408817309
16.68,2292.046496843548
16.684,2291.81398726649
16.688,2295.818487805989
16.692,2283.4833343047612
16.696,2305.3095572915922
16.7,2369.1300158516037
16.704,2372.4809716488135
16.708,2368.056108507281
16.712,2364.4248327806004
16.716,2381.226739984394
16.72,2463.224852532966
16.724,2473.1103476311982
16.728,2448.52272252567
16.732,2479.355689566395
16.736,2445.565636695071
16.74,2379.8869115333955
16.744,2377.121424149
16.748,2381.641654064303
16.752,2380.871559251976
16.756,2375.734422876781
16.76,2342.9032239600588
16.764,2338.4362148980154
16.768,2349.5055495333463
16.772,2336.5212641397543
16.776,2347.544590266146
16.78,2347.956164879522
16.784,2344.5573509824903
16.788,2353.2872684401214
16.792,2345.613798991142
16.796,2338.8443267958623
16.8,2203.4519040327054
16.804,2167.101679140807
16.808,2282.393354436761
16.812,2074.5069634710717
16.816,2401.4999181468042
16.82,3464.631154295345
16.824,3572.872619032055
16.828,3306.5643020141856
16.832,3637.047954559064
16.836,3276.0838603013085
16.84,2590.8713751756673
16.844,2568.0238635251226
16.848,2595.465572931038
16.852,2620.3149000034114
16.856,2527.5703621653693
16.86,2139.0062213475926
16.864,2099.535290099397
16.868,2192.366222887507
16.872,2087.7047827773354
16.876,2187.4106574930643
16.88,2327.1548780194844
16.884,2326.865538511289
16.888,2333.6046427842034
16.892,2315.3197369265845
16.896,2340.9960944151094
16.9,2388.0525857525254
16.904,2386.9735357932254
16.908,2393.809604338578
16.912,2377.253217640425
16.916,2402.5907670584734
16.92,2462.098297776168
16.924,2463.1094118027845
16.928,2465.3989245539506
16.932,2452.118893517196
16.936,2479.021803673765
16.94,2567.197795107141
16.944,2573.2670424255025
16.948,2562.3119050355303
16.952,2566.4489311763055
16.956,2574.7535997406767
16.96,2635.1715072972543
16.964,2641.99157104474
16.968,2627.010625207975
16.972,2640.351968902908
16.976,2634.5647634691704
16.98,2658.096628846392
16.984,2662.7083241781916
16.988,2652.170029193848
16.992,2661.6254389824862
16.996,2659.478074270925
17.0,2695.1363613600042
17.004,2702.102180825349
17.008,2684.4752335335347
17.012,2705.5483405818586
17.016,2687.5038781454987
17.02,2685.065753648981
17.024,2690.6024256637015
17.028,2674.077015725788
17.032,2699.354810585082
17.036,2669.29670792706
17.04,2616.9354406810703
17.044,2617.347768058034
17.048,2612.6699169747867
17.052,2625.344185741939
17.056,2605.695747259704
17.06,2559.9236831134117
17.064,2558.9825235170197
17.068,2558.2202631806317
17.072,2565.420060707721
17.076,2551.201740421634
17.08,2509.917833874643
17.084,2508.103569857392
17.088,2510.0370225735905
17.092,2513.1602857457374
17.096,2503.3252760344767
17.1,2466.917349106863
17.104,2464.641099846751
17.108,2467.9034530237427
17.112,2469.7155321741334
17.116,2458.979389073245
17.12,2402.838185032535
17.124,2395.7247442494877
17.128,2413.5711335959586
17.132,2391.0907956924752
17.136,2415.302690032178
17.14,2458.06456885941
17.144,2458.930001173721
17.148,2458.857804135647
17.152,2454.8337773910707
17.156,2463.564850282262
17.16,2493.0698984995524
17.164,2495.488692103548
17.168,2490.2465988240792
17.172,2495.1567566764525
17.176,2491.7423429824216
17.18,2491.006259954159
17.184,2491.3543675700266
17.188,2490.7712272045937
17.192,2490.475052672507
17.196,2492.932819044227
17.2,2508.0467255173266
17.204,2510.209722836299
17.208,2504.693660804263
17.212,2511.7071738713375
17.216,2504.3480735359044
17.22,2492.9865173521016
17.224,2493.0114941717225
17.228,2492.4344250254107
17.232,2493.9165184440567
17.236,2492.13072501799
17.24,2491.0050320241007
17.244,2491.556242268005
17.248,2489.842352541911
17.252,2492.499337152828
17.256,2489.5231825882834
17.26,2486.0003771910683
17.264,2486.4098286728804
17.268,2485.030477655927
17.272,2487.196697848903
17.276,2485.171302697034
17.28,2487.0194844374187
17.284,2488.575060703226
17.288,2483.6167802812943
17.292,2492.1356071857613
17.296,2480.24459037828
17.3,2450.9424702927977
17.304,2449.596402681672
17.308,2451.388101881034
17.312,2452.593366980128
17.316,2446.9007933700777
17.32,2420.930265850472
17.324,2418.2557988602885
17.328,2424.3721415737
17.332,2418.0019925636416
17.336,2423.2209792490144
17.34,2428.0027699007496
17.344,2428.0833224817534
17.348,2427.250407909925
17.352,2430.469055158337
17.356,2422.4961491155373
17.36,2384.888324186573
17.364,2379.840580798795
17.368,2392.8279980192697
17.372,2375.9020625886856
17.376,2394.496482158327
17.38,2427.0479401348307
17.384,2427.6114718527674
17.388,2427.4688559246842
17.392,2425.93104883389
17.396,2427.2745432458205
17.4,2416.943142652975
17.404,2412.978775968423
17.408,2425.334200588625
17.412,2404.4939073108703
17.416,2433.379125119332
17.42,2504.139089531748
17.424,2507.3107766522176
17.428,2503.228524755923
17.432,2499.9984540528103
17.436,2513.743132635689
17.44,2572.148356196712
17.444,2577.0233215556946
17.448,2567.7648259973503
17.452,2571.8996133025407
17.456,2579.3074747084784
17.46,2645.215866469787
17.464,2655.3067078551935
17.468,2629.1689587390892
17.472,2663.4421864527435
17.476,2625.8307420618735
17.48,2561.914145208437
17.484,2561.9454748492485
17.488,2557.295835826017
17.492,2572.821203689773
17.496,2544.250644129889
17.5,2450.7724233703548
17.504,2442.962607507236
17.508,2459.673995602903
17.512,2445.4925268964175
17.516,2450.5104262749646
17.52,2413.84429016565
17.524,2405.6692818892175
17.528,2427.108981587024
17.532,2400.051815166982
17.536,2424.2282753220265
17.54,2422.874442469886
17.544,2412.3954125855194
17.548,2444.631449932907
17.552,2394.6100645947085
17.556,2449.161722670747
17.56,2466.7166830899687
17.564,2434.487291934139
17.568,2554.9621718526105
17.572,2300.0117900127943
17.576,2746.827238764174
17.58,4368.445079075846
17.584,4555.585655369753
17.588,4074.6690196293093
17.592,4718.755510080767
17.596,3947.187427762318
17.6,2192.371608506885
17.604,2085.3777777162945
17.608,2308.0999391019564
17.612,2111.3007680010032
17.616,2248.40470566755
17.62,2310.844797142227
17.624,2297.7391224869116
17.628,2332.1865570261484
17.632,2290.026073878369
17.636,2325.9989298124997
17.64,2339.9173386775497
17.644,2332.8568251683014
17.648,2353.31622864222
17.652,2323.3240365321585
17.656,2357.9068455078946
17.66,2421.101036303164
17.664,2422.823381476569
17.668,2420.4909707883744
17.672,2420.665913191768
17.676,2420.753991184884
17.68,2410.9530481980637
17.684,2408.077118189205
17.688,2416.454065051469
17.692,2403.6531881441297
17.696,2419.593918769631
17.7,2452.0540140917215
17.704,2452.7224088724774
17.708,2453.071183056758
17.712,2448.4383102611528
17.716,2458.2479619346927
17.72,2491.0787820584706
17.724,2493.5543154335955
17.728,2488.581339300748
17.732,2492.1759509523154
17.736,2491.4456750705463
17.74,2499.023413144411
17.744,2499.577818107802
17.748,2499.5417882687125
17.752,2495.751408907375
17.756,2506.6260633520383
17.76,2558.153479813379
17.764,2564.6815390121883
17.768,2548.3631175663036
17.772,2568.4182603951554
17.776,2548.294836686618
17.78,2521.9814153847415
17.784,2523.151572180132
17.788,2518.3712727779475
17.792,2527.3559209804234
17.796,2516.359517158097
17.8,2503.0065172579125
17.804,2505.395305494653
17.808,2496.3340571776885
17.812,2514.453723613743
17.816,2486.46240928023
17.82,2406.8164030107687
17.824,2401.116947036173
17.828,2412.9672039260063
17.832,2403.0253981468686
17.836,2408.2621599007657
17.84,2400.9603214422355
17.844,2399.0105497216887
17.848,2403.872325876311
17.852,2397.9961346777527
17.856,2403.8770748764036
17.86,2414.019125920529
17.864,2414.669708937181
17.868,2412.8797303277797
17.872,2415.7097902084056
17.876,2411.612977693799
17.88,2400.9790172736093
17.884,2400.6750214242757
17.888,2400.384026941156
17.892,2403.3984770106536
17.896,2395.9803364407844
17.9,2363.906105641365
17.904,2359.927700356529
17.908,2370.2047564306313
17.912,2356.345151726577
17.916,2373.1405209109007
17.92,2413.089101797668
17.924,2416.015810604903
17.928,2409.189251001396
17.932,2417.162632730261
17.936,2408.3108810373283
17.94,2387.9534028388057
17.944,2386.2865376890854
17.948,2390.5044980583652
17.952,2384.6770827200576
17.956,2392.614812699333
17.96,2417.065856017462
17.964,2419.7640242444645
17.968,2412.7634191206444
17.972,2422.270067772318
17.976,2410.8336318247398
17.98,2385.951756770123
17.984,2384.8987571440134
17.988,2386.332719786689
17.992,2387.138106508302
17.996,2382.957906211901
18.0,2362.941792929493
18.004,2360.6114857130046
18.008,2366.3723950065223
18.012,2359.2206926164326
18.016,2367.0616311058748
18.02,2383.032517470018
18.024,2384.0206315441865
18.028,2381.682714243542
18.032,2384.6442811076495
18.036,2380.7552784003037
18.04,2368.9684512772133
18.044,2367.7086013033027
18.048,2370.9436853214706
18.052,2366.5548755343398
18.056,2372.0863488233426
18.06,2387.0382826989526
18.064,2388.5980298009054
18.068,2384.328150330923
18.072,2390.92351332276
18.076,2381.2780203406633
18.08,2350.919494433834
18.084,2347.8520762138273
18.088,2355.3454692518285
18.092,2346.3438855475833
18.096,2355.4214177318263
18.1,2368.0109131591466
18.104,2367.515085322803
18.108,2369.8658387926116
18.112,2364.675835505123
18.116,2372.7347541966656
18.12,2395.051610738329
18.124,2396.680010962829
18.128,2392.920870118496
18.132,2397.5470276192705
18.136,2391.109080434485
18.14,2365.9179864025746
18.144,2361.8114976521038
18.148,2373.695400742549
18.152,2354.9274821109484
18.156,2380.4723264605573
18.16,2444.1344974165695
18.164,2447.2837242252117
18.168,2442.883700571643
18.172,2440.385736601325
18.176,2454.093323630746
18.18,2521.1955976295826
18.184,2528.52776713565
18.188,2511.883231509401
18.192,2527.823795930344
18.196,2519.847438292776
18.2,2553.1703130159044
18.204,2562.9160154782353
18.208,2534.7384589103876
18.212,2578.174931199915
18.216,2521.654187101835
18.22,2388.7240979166936
18.224,2382.0126264839614
18.228,2393.1033997515756
18.232,2391.417338470434
18.236,2378.108005386577
18.24,2299.763470335776
18.244,2290.6628666415554
18.248,2311.9045332960036
18.252,2289.6720982667143
18.256,2305.650850863099
18.26,2295.897736165284
18.264,2289.6359956125684
18.268,2306.366237277827
18.272,2286.1874388361857
18.276,2298.6657572723802
18.28,2241.670853365103
18.284,2220.149488026024
18.288,2287.756553900794
18.292,2171.065425191781
18.296,2339.687864020635
18.3,2790.005797522012
18.304,2815.2939277906175
18.308,2777.4195580370265
18.312,2761.4776145976098
18.316,2879.5116410337155
18.32,3566.263670578
18.324,3668.685008058917
18.328,3392.3490944823207
18.332,3787.7669837952053
18.336,3288.601833617459
18.34,2085.317525894209
18.344,2006.4472830590175
18.348,2174.556367246711
18.352,2018.1804727805456
18.356,2136.8148116812845
18.36,2228.985774249389
18.364,2222.491739181406
18.368,2240.9253358554365
18.372,2216.9776801675534
18.376,2236.9554971407574
18.38,2237.9258829594983
18.384,2232.950059965192
18.388,2246.464017266817
18.392,2228.7947159992364
18.396,2245.6467932803566
18.4,2258.9808505490287
18.404,2256.352038726608
18.408,2264.6075525254823
18.412,2251.51629364783
18.416,2267.2123167913564
18.42,2295.0398320331074
18.424,2295.1153401899846
18.428,2296.5182145013623
18.432,2291.8925273600626
18.436,2299.153705205351
18.44,2315.0250970348225
18.444,2315.019327327208
18.448,2316.4511624569277
18.452,2311.633154384735
18.456,2320.3896292268096
18.46,2347.0628615766473
18.464,2348.7165332516774
18.468,2345.989161683664
18.472,2346.066285718479
18.476,2350.749101475962
18.48,2378.084971611776
18.484,2381.366850483862
18.488,2373.682422720956
18.492,2381.6621704886516
18.496,2376.2946624720084
18.5,2383.049903655476
18.504,2385.9960665742847
18.508,2377.7530709433595
18.512,2389.3665165552798
18.516,2376.7025094938153
18.52,2359.9928928034124
18.524,2361.3465475293297
18.528,2356.0181593554576
18.532,2366.40454294022
18.536,2351.8934229577317
18.54,2320.949331129319
18.544,2320.8370790867466
18.548,2318.31482974385
18.552,2327.7391039459917
18.556,2309.3934262256926
18.56,2245.8293615779066
18.564,2239.866790595012
18.568,2253.910581625623
18.572,2237.8021250621573
18.576,2254.325360852869
18.58,2286.065923296419
18.584,2288.029432409883
18.588,2283.4395418303343
18.592,2288.7489136704294
18.596,2283.36205043225
18.6,2277.0018846242656
18.604,2278.0809469976475
18.608,2273.714050122471
18.612,2283.1371934788017
18.616,2267.3720864300153
18.62,2216.867675548625
18.624,2212.418161421222
18.628,2222.5578695667095
18.632,2211.9095413111268
18.636,2221.0865496549886
18.64,2231.0071875823987
18.644,2230.812825396848
18.648,2231.386727954329
18.652,2230.999622215033
18.656,2229.9265780178175
18.66,2218.9586043939958
18.664,2216.9784422221337
18.668,2222.447080027697
18.672,2214.3869473834693
18.676,2224.8681413333406
18.68,2252.067127045185
18.684,2254.3761278798024
18.688,2248.616828923726
18.692,2256.2866017989068
18.696,2246.351165505614
18.7,2217.9233830944277
18.704,2215.0141142044736
18.708,2222.5238865452925
18.712,2212.2617360969634
18.716,2225.113851250616
18.72,2257.075511309727
18.724,2259.3861331405196
18.728,2254.26484651243
18.732,2259.440119845728
18.736,2254.9864294010804
18.74,2248.9897849002186
18.744,2248.5763660122657
18.748,2250.1978189030306
18.752,2246.1283852020515
18.756,2254.905099509814
18.76,2295.1318615521404
18.764,2300.975139446545
18.768,2285.028865738941
18.772,2308.23509023387
18.776,2278.5391296434163
18.78,2206.8387160370394
18.784,2202.462720045384
18.788,2211.1662772940995
18.792,2204.850875485527
18.796,2206.4515999787886
18.8,2191.941169711923
18.804,2189.347676648828
18.808,2195.9753225240233
18.812,2187.513944709066
18.816,2196.62135125748
18.82,2213.029681871061
18.824,2213.670439021718
18.828,2212.305998003171
18.832,2214.0843004187627
18.836,2210.6488404658694
18.84,2191.9303708053512
18.844,2188.351132072647
18.848,2199.0806638617446
18.852,2181.0936654798447
18.856,2207.6873282242855
18.86,2287.2092332817483
18.864,2294.3080501977515
18.868,2277.6369804447822
18.872,2296.410278013192
18.876,2278.272768879557
18.88,2250.959164535982
18.884,2250.398436331821
18.888,2251.3332088951
18.892,2250.229643626297
18.896,2253.31184996878
18.9,2272.065511479427
18.904,2274.795375014614
18.908,2268.26130050126
18.912,2274.754245526028
18.916,2272.591139050272
18.92,2300.1340767552756
18.924,2307.5511688639594
18.928,2285.7517109305245
18.932,2320.021350096811
18.936,2275.003076571479
18.94,2171.790236640643
18.944,2167.9549193095904
18.948,2171.436829462421
18.952,2180.7876432014896
18.956,2152.660650319269
18.96,2034.656745967747
18.964,2022.6333816190352
18.968,2050.256805053887
18.972,2021.8522531657204
18.976,2042.9233463102717
18.98,2040.911881453411
18.984,2035.5133056948116
18.988,2049.600452293576
18.992,2033.5440487405858
18.996,2042.0836658983064
19.0,1995.7507737665383
19.004,1981.9932767036744
19.008,2020.7180895335289
19.012,1966.7820075569216
19.016,2019.3633326602276
19.02,2007.5860644770557
19.024,1970.8807777054606
19.028,2102.8998410184668
19.032,1832.9835750076734
19.036,2296.746927505546
19.04,3951.8868374561166
19.044,4140.8120805754525
19.048,3653.8420053497375
19.052,4307.9636021277465
19.056,3520.002219750724
19.06,1710.9133318198938
19.064,1598.500904363834
19.068,1835.3750019945744
19.072,1621.4639312399493
19.076,1775.7983997941133
19.08,1862.8608952782065
19.084,1849.463958444884
19.088,1886.1120734105778
19.092,1838.4739339131434
19.096,1883.0996682317148
19.1,1921.976344834464
19.104,1917.3096610844582
19.108,1931.3890449030634
19.112,1911.091958170174
19.116,1931.223192347269
19.12,1945.966886951999
19.124,1942.1679784428616
19.128,1954.1367937040677
19.132,1934.8341735587805
19.136,1958.952236471741
19.14,2008.0930239887477
19.144,2009.7924736481912
19.148,2007.25534679422
19.152,2007.6437333067731
19.156,2008.7158514619691
19.16,2008.9888491288832
19.164,2007.9984752813527
19.168,2011.1804245803146
19.172,2005.8946890142188
19.176,2012.652854561561
19.18,2026.02253348491
19.184,2026.1945681486366
19.188,2026.552938218225
19.192,2024.6324096405103
19.196,2027.924792329189
19.2,2035.0092586484086
19.204,2034.6968953615292
19.208,2036.6457431092217
19.212,2031.36727588085
19.216,2041.2455052563448
19.22,2076.098311188563
19.224,2079.3624429855004
19.228,2072.1562233271184
19.232,2078.495425236006
19.236,2076.5867576065452
19.24,2099.1067755315794
19.244,2104.627114323734
19.248,2088.8564270305874
19.252,2112.643350712457
19.256,2082.7028143211055
19.26,2018.877176329597
19.264,2017.105753822066
19.268,2017.6334171599497
19.272,2025.4096347208406
19.276,2006.6966136772692
19.28,1937.8094510128947
19.284,1931.7962868345137
19.288,1944.9000467028875
19.292,1932.8514636216335
19.296,1940.284079763997
19.3,1934.9558844816377
19.304,1932.823977556013
19.308,1938.0630165099096
19.312,1932.2312994986914
