Time (s),ecg
0.0,-317.00000000000017
0.004,-325.314823076877
0.008,-403.3917765044499
0.012,-334.5837366267859
0.016,-378.72941970670433
0.02,-363.9991196956174
0.024,-356.28102835177657
0.028,-387.9682794751707
0.032,-349.8758707564801
0.036,-382.41137013040816
0.04,-368.99718475554744
0.044,-272.0266065171973
0.048,-251.09953238564222
0.052,-261.30210047594517
0.056,-256.0589986483286
0.06,-258.00092270942173
0.064,-293.6484459961959
0.068,-311.3812649426051
0.072,-296.75940354981935
0.076,-305.9594389972599
0.08,-302.9995830379007
0.084,-315.5982868789664
0.088,-332.0936566720111
0.092,-314.2844533155522
0.096,-328.92470566045483
0.1,-322.997071193356
0.104,-287.5024467447622
0.108,-284.2430479289584
0.112,-281.8828466703631
0.116,-286.0957475644242
0.12,-283.9985511616934
0.124,-268.554128866524
0.128,-267.2211400960226
0.132,-265.8727458610541
0.136,-268.0653649094117
0.14,-266.99918035301124
0.144,-259.753728221373
0.148,-258.8437817652454
0.152,-259.1697621939968
0.156,-258.459595636049
0.16,-259.0012258750674
0.164,-279.9736624603382
0.168,-291.85339826859484
0.172,-281.06101670696677
0.176,-289.0050554864283
0.18,-285.9977737652867
0.184,-276.7959593138025
0.188,-281.6324705248723
0.192,-273.0415415847356
0.196,-282.518429720402
0.2,-277.9937928601879
0.204,-222.4261491341655
0.208,-202.34631294465316
0.212,-217.265099841483
0.216,-207.27013136838983
0.22,-211.00401091016192
0.224,-234.97127973067808
0.228,-238.62678416677417
0.232,-239.15096771197503
0.236,-236.0803542318872
0.24,-238.00403013305996
0.244,-271.01676438104477
0.248,-282.6995018244128
0.252,-275.91154196028174
0.256,-277.75703254173834
0.26,-278.0032394903816
0.264,-313.9824613432047
0.268,-332.8740548161218
0.272,-317.6428809386597
0.276,-326.75638800040434
0.28,-323.99946596173066
0.284,-345.8656503277063
0.288,-367.84251658594076
0.292,-345.0060229575886
0.296,-362.97765780380706
0.3,-355.9916834251764
0.304,-342.5455342858588
0.308,-362.45938136412326
0.312,-332.0428526917867
0.316,-363.1647365405512
0.32,-348.9738225527873
0.324,-245.46633634350624
0.328,-249.88205791677404
0.332,-208.2554799800345
0.336,-275.16607389043764
0.34,-237.88958710922947
0.344,461.6404416941156
0.348,789.3523698463927
0.352,501.28852154197085
0.356,725.8395809561838
0.36,633.8130640973199
0.364,-168.4534017745056
0.368,-391.72105741744974
0.372,-262.16098086443264
0.376,-323.004347705656
0.38,-306.99076501045613
0.384,-341.46045495266736
0.388,-380.752365877242
0.392,-346.21632118898367
0.396,-368.30147666884955
0.4,-360.9913635693435
0.404,-354.57215231386533
0.408,-364.9669229205007
0.412,-354.5182108260603
0.416,-360.45127642419686
0.42,-359.00236659418636
0.424,-390.32656454021213
0.428,-411.4651835137039
0.432,-392.8690408469431
0.436,-405.0505622826802
0.44,-400.9960861596598
0.444,-413.15858709431603
0.448,-433.70251712990245
0.452,-409.8566551884838
0.456,-431.227115734673
0.46,-421.9752184127611
0.464,-339.01619430677573
0.468,-316.78574247683326
0.472,-329.13633222772773
0.476,-323.53419367022326
0.48,-325.00148612806123
0.484,-324.9198324137089
0.488,-322.76135929548576
0.492,-325.41165283802746
0.496,-322.66478186694945
0.5,-324.0051580817332
0.504,-344.4510928530822
0.508,-352.4371872403409
0.512,-346.9880908626375
0.516,-349.45185610991086
0.52,-349.00236597028186
0.524,-368.46604955137076
0.528,-381.9019686320162
0.532,-368.6605453676015
0.536,-379.41779063465276
0.54,-374.98708290860554
0.544,-340.4086270166059
0.548,-331.99875842259127
0.552,-336.66841873183205
0.556,-333.94904081357504
0.56,-335.00458495002044
0.564,-354.53216585790835
0.568,-365.62095238920995
0.572,-354.6567108083122
0.576,-363.9800206899922
0.58,-359.9863085777321
0.584,-322.0069129966152
0.588,-310.03471323613934
0.592,-318.75040216909713
0.596,-312.18903849830264
0.6,-315.01241738458697
0.604,-359.5025296061995
0.608,-382.377844274157
0.612,-360.0905415050732
0.616,-379.52482782213184
0.62,-370.9663295274514
0.624,-277.4756069584475
0.628,-245.60051345081678
0.632,-268.054311337348
0.636,-254.1564096697947
0.64,-259.01298378130576
0.644,-281.19095653605154
0.648,-282.5301215020381
0.652,-284.5716678396015
0.656,-281.457573820414
0.66,-283.00621694863503
0.664,-295.7234986308995
0.668,-296.33715652700033
0.672,-299.31777396510427
0.676,-294.0733207612421
0.68,-297.01659815011544
0.684,-346.01528487006965
0.688,-365.60529380653145
0.692,-351.13179355971357
0.696,-359.78734602417455
0.7,-356.99491724859854
0.704,-359.31347616021304
0.708,-368.087187824649
0.712,-357.8149172326196
0.716,-366.78367082635674
0.72,-362.9849114146378
0.724,-332.05567963764446
0.728,-323.823809983173
0.732,-329.3581645500267
0.736,-324.9477310106737
0.74,-327.01335906255514
0.744,-370.1233766359003
0.748,-394.0491792303819
0.752,-370.5242334937035
0.756,-390.69604496237974
0.76,-381.9598896255052
0.764,-295.8599962234416
0.768,-269.40708738429714
0.772,-286.58259164042056
0.776,-276.6081983888865
0.78,-280.0123070902584
0.784,-304.1801794156354
0.788,-313.31141922930624
0.792,-304.89259782515654
0.796,-312.25858451606024
0.8,-308.98352904259366
0.804,-275.0978554619668
0.808,-265.37626057123975
0.812,-270.5201017839393
0.816,-268.97840520126545
0.82,-268.9957198446456
0.824,-254.0587070260185
0.828,-246.3794736971411
0.832,-252.9140964180008
0.836,-248.085737429929
0.84,-250.00920630850976
0.844,-268.9330388069819
0.848,-276.63632838300333
0.852,-269.60657474487147
0.856,-275.70172896832094
0.86,-272.9847010322912
0.864,-241.4296322741726
0.868,-230.19004908455153
0.872,-238.37519022280162
0.876,-233.0669646716501
0.88,-235.00826154672487
0.884,-248.63367279809896
0.888,-252.74321849390498
0.892,-249.58573531537658
0.896,-252.02941242690747
0.9,-250.99435090961032
0.904,-240.80648116529545
0.908,-237.95487996388053
0.912,-239.39769707566603
0.916,-239.0463358978501
0.92,-238.99828519983183
0.924,-234.20982449844942
0.928,-231.99446137896413
0.932,-233.753147299983
0.936,-232.53200109299948
0.94,-233.00243153516712
0.944,-237.21565952281043
0.948,-238.45895308091013
0.952,-237.97830747261156
0.956,-237.5628170544939
0.96,-238.00622221104274
0.964,-255.8532758218311
0.968,-266.0276678618716
0.972,-256.87717785583317
0.976,-263.14944180567795
0.98,-260.99662945368095
0.984,-276.2724416628967
0.988,-296.96214179990864
0.992,-271.89118188768356
0.996,-295.04556205750913
1.0,-284.9486092073003
1.004,-237.64183418847077
1.008,-263.0436736988476
1.012,-205.31552655145396
1.016,-283.74565817907956
1.02,-241.64238188711505
1.024,500.7134727745746
1.028,842.5129050623025
1.032,543.8184150880162
1.036,775.4093647748971
1.04,680.450475315809
1.044,-127.80699440282612
1.048,-347.1493118852781
1.052,-223.2936375111222
1.056,-278.42537266296057
1.06,-264.9908436950404
1.064,-322.9557425310812
1.068,-367.11460190112444
1.072,-331.56531364912223
1.076,-352.01322901714525
1.08,-345.99149533909343
1.084,-371.32853507314417
1.088,-397.92214989085295
1.092,-372.0277954439855
1.096,-391.3606626835891
1.1,-383.96337238123374
1.104,-345.05659761546275
1.108,-340.0509809248508
1.112,-341.0569951991704
1.116,-340.55627156400294
1.12,-341.0098106860489
1.124,-367.2058431955726
1.128,-382.71996793861666
1.132,-368.3455738377505
1.136,-379.29642479339935
1.14,-374.9760820366483
1.144,-348.2643601683836
1.148,-343.9850999133027
1.152,-344.9186858078788
1.156,-345.29858016757726
1.16,-344.99830223722205
1.164,-343.9441525223715
1.168,-343.97232133941463
1.172,-344.543205978654
1.176,-342.9001643998389
1.18,-344.0145955174517
1.184,-374.6677072626814
1.188,-391.0861697880878
1.192,-375.71558362613797
1.196,-388.2853159651075
1.2,-382.9619286995763
1.204,-328.990909178444
1.208,-308.91395451379856
1.212,-326.03518538853706
1.216,-311.53663438482994
1.22,-318.05552286042735
1.224,-406.7118225193235
1.228,-444.49259356693904
1.232,-412.6374906674801
1.236,-436.51247316086733
1.24,-426.93726173246137
1.244,-354.1510634556205
1.248,-337.4505083681287
1.252,-344.7327365135849
1.256,-343.34992446038814
1.26,-342.98979320807854
1.264,-324.9437783443105
1.268,-318.368669182653
1.272,-322.2333455899268
1.276,-320.8844118333266
1.28,-320.99575057676844
1.284,-310.8051187253781
1.288,-305.5683145228944
1.292,-309.76277665529085
1.296,-307.1067259768288
1.3,-308.0036060350959
1.304,-308.7205206866253
1.308,-306.8738340495955
1.312,-309.11845078817566
1.316,-307.3106295116012
1.32,-308.0028103890904
1.324,-306.66077562526914
1.328,-302.31970300716114
1.332,-308.3099675992143
1.336,-302.0474817438882
1.34,-305.026383953447
1.344,-338.07099020667073
1.348,-347.2619308623628
1.352,-343.2588995227837
1.356,-342.9223707475479
1.36,-344.0216749490994
1.364,-383.63865750063036
1.368,-403.32125989331007
1.372,-386.52957808195174
1.376,-398.54945987496853
1.38,-393.9712982948983
1.384,-370.0849508804423
1.388,-368.47046837159036
1.392,-366.2434114862526
1.396,-369.75713505019655
1.4,-367.9842549014246
1.404,-350.1130604425542
1.408,-344.9778750777722
1.412,-348.4703591252787
1.416,-345.78827296792707
1.42,-347.0144839223802
1.424,-370.68134434924957
1.428,-383.15722221727566
1.432,-371.5427563012493
1.436,-380.65523282565965
1.44,-376.9743647755389
1.444,-357.0702804123079
1.448,-358.08013247224613
1.452,-351.77647446714207
1.456,-360.48666560787194
1.46,-355.9513471309852
1.464,-293.96806326231035
1.468,-271.2311254874748
1.472,-287.75405883568027
1.476,-277.2920888300254
1.48,-281.024406405035
1.484,-302.0786402951
1.488,-306.6168202299133
1.492,-303.9483571911001
1.496,-305.7566926331137
1.5,-304.99200309959434
1.504,-294.4393898899897
1.508,-289.88581038406727
1.512,-293.76223739792215
1.516,-290.7678020642412
1.52,-292.0111818646326
1.524,-304.51410034605874
1.528,-308.8519758113089
1.532,-305.779002327376
1.536,-307.4939057953751
1.54,-307.0004245017777
1.544,-313.92682271823867
1.548,-320.96209459227407
1.552,-312.610261074364
1.556,-320.6778929892847
1.56,-316.9631818970636
1.564,-277.9789332513238
1.568,-266.9406433164829
1.572,-272.48430091465497
1.576,-271.36172626464327
1.58,-270.9846018627037
1.584,-245.5826113869898
1.588,-233.42173882462794
1.592,-242.92214818442267
1.596,-237.2080641662194
1.6,-239.00479537563646
1.604,-230.7988056683453
1.608,-219.67460635448
1.612,-232.8880011358911
1.616,-220.28457779176895
1.62,-226.06064836060565
1.624,-291.772160743516
1.628,-314.89351082158805
1.632,-298.0317901577487
1.636,-308.9620431176128
1.64,-304.97009825124564
1.644,-281.3100143775129
1.648,-276.1113270565262
1.652,-279.55497819553284
1.656,-276.27863413965144
1.66,-278.02932830175007
1.664,-323.1770100323601
1.668,-349.0375492288945
1.672,-324.2370443766405
1.676,-343.5442947331467
1.68,-335.95213288283986
1.684,-335.3494149247568
1.688,-378.6143972266876
1.692,-309.1040752759056
1.696,-392.4488884495319
1.7,-349.42861244337735
1.704,335.04487606805213
1.708,633.4608621668391
1.712,382.10161108945664
1.716,568.9512297877592
1.72,494.3342539771088
1.724,-52.29729814512289
1.728,-169.6854601652373
1.732,-126.54678521394207
1.736,-123.85710040014192
1.74,-133.19292249015388
1.744,-367.9615420342568
1.748,-458.3847829462712
1.752,-396.4475382107897
1.756,-429.52573917207695
1.76,-419.9706885679537
1.764,-441.55858869739785
1.768,-469.6852218331157
1.772,-443.11665449692265
1.776,-461.43849514367827
1.78,-454.9610982274971
1.784,-443.8050701723682
1.788,-452.74089766806907
1.792,-441.349997806941
1.796,-450.4739214886336
1.8,-446.97611125834004
1.804,-438.48717967136463
1.808,-443.41627409273815
1.812,-436.183792413288
1.816,-442.78017453550063
1.82,-439.97305126061417
1.824,-418.56194632138056
1.828,-412.35820721080637
1.832,-417.59054532263303
1.836,-412.4121192376202
1.84,-415.03999749076115
1.844,-461.6789231670744
1.848,-482.92243918508194
1.852,-465.1013298692421
1.856,-477.8483488297302
1.86,-472.95752905635396
1.864,-444.43447041330455
1.868,-439.83310938412325
1.872,-441.22684942706434
1.876,-440.8055720673262
1.88,-441.0076414917373
1.884,-454.6106918926324
1.888,-463.736443213304
1.892,-454.53078272861046
1.896,-462.1963865043144
1.9,-458.9665531117124
1.904,-433.1067359978841
1.908,-426.6890823209657
1.912,-430.2092355210577
1.916,-428.4088346909704
1.92,-429.0061205398779
1.924,-434.76443564069643
1.928,-436.90310105306844
1.932,-435.60402058705455
1.936,-435.8324112694052
1.94,-436.00869065410166
1.944,-449.174699580603
1.948,-456.72712183127413
1.952,-449.8525878265832
1.956,-454.9477477563243
1.96,-452.98340765185526
1.964,-444.99481605950194
1.968,-446.3791428647002
1.972,-442.8695640661326
1.976,-447.0137660132889
1.98,-444.972267974121
1.984,-419.3983853610865
1.988,-409.6354171894887
1.992,-417.51096992566085
1.996,-411.5621421844148
2.0,-414.02896062789847
2.004,-438.29142877584934
2.008,-446.47338579881585
2.012,-440.49239265758746
2.016,-444.6219748169863
2.02,-442.97927846108115
2.024,-421.68113495504315
2.028,-409.659859537285
2.032,-423.14319827130674
2.036,-409.4105771057279
2.04,-416.09860143658614
2.044,-508.77405403766886
2.048,-545.0551452151379
2.052,-517.4914685687268
2.056,-535.1940682773065
2.06,-528.9516917227505
2.064,-510.1798049073347
2.068,-514.7005411261262
2.072,-506.6608643796223
2.076,-513.8900851902264
2.08,-510.97836107193257
2.084,-510.4477692469817
2.088,-522.9599261136385
2.092,-505.1053543386669
2.096,-523.8464327847258
2.1,-514.8732110348296
2.104,-406.3325012819719
2.108,-366.7622661276631
2.112,-396.8628009972461
2.116,-375.8474002438223
2.12,-384.09443998808973
2.124,-454.88257420016157
2.128,-477.34506521026225
2.132,-461.75066236673865
2.136,-471.1582245199835
2.14,-467.9781504281055
2.144,-465.15510822558673
2.148,-472.9156731934836
2.152,-462.3899786227266
2.156,-472.3682373817226
2.16,-467.9484461949094
2.164,-437.7183355618081
2.168,-436.64214878694554
2.172,-430.0075321608906
2.176,-440.9588356977756
2.18,-434.89642677849594
2.184,-341.604173396543
2.188,-304.44068337724235
2.192,-333.33827654640015
2.196,-313.62378971130005
2.2,-321.07858864477487
2.204,-369.79632048913567
2.208,-380.8980603938782
2.212,-375.0287620251761
2.216,-377.8594357023074
2.22,-376.9920679411888
2.224,-371.90755996025587
2.228,-370.30149190530614
2.232,-371.556919658725
2.236,-370.60689746709255
2.24,-371.0056289261177
2.244,-375.8489981389619
2.248,-378.1105027265483
2.252,-375.92770256889435
2.256,-377.8584680272614
2.26,-376.9873613509769
2.264,-367.05175056042174
2.268,-363.3593320638776
2.272,-366.3258696126724
2.276,-364.0512612017337
2.28,-365.013418299411
2.284,-375.08544552666825
2.288,-378.17181760688146
2.292,-376.70150706212615
2.296,-376.4791649379207
2.3,-377.0200123124118
2.304,-401.1041204041371
2.308,-414.81851178001375
2.312,-402.1015990096797
2.316,-411.6949712529669
2.32,-407.96448588769107
2.324,-397.16892496657607
2.328,-403.933505943288
2.332,-392.78077042912935
2.336,-403.7501790024618
2.34,-398.95089666450906
2.344,-390.8112023009472
2.348,-413.9111497040032
2.352,-374.95088852668863
2.356,-421.31475133381406
2.36,-397.58765102257917
2.364,-66.21206947111395
2.368,56.48911514110156
2.372,-29.02697921438144
2.376,16.60932906377159
2.38,4.00306382141497
2.384,131.62929099534816
2.388,251.14721109609565
2.392,119.36236220460113
2.396,238.11298260189477
2.4,185.23867129058746
2.404,-328.0874086010375
2.408,-478.1415899843402
2.412,-389.03427079301366
2.416,-430.33591498154505
2.42,-419.9876877540238
2.424,-474.98822098062897
2.428,-518.938029999602
2.432,-479.4612105614933
2.436,-507.1888542981941
2.44,-496.89306825916856
2.444,-447.0852352748806
2.448,-440.5708411935408
2.452,-442.6095218334415
2.456,-440.83850715865634
2.46,-442.03786579037234
2.464,-482.72948451630356
2.468,-504.807266902564
2.472,-484.7709802605962
2.476,-500.09366166119617
2.48,-493.921511771844
2.484,-448.3377740690664
2.488,-436.3104719331767
2.492,-444.37685951129953
2.496,-438.4526723055717
2.5,-441.04596487028914
2.504,-478.26402833571956
2.508,-494.6121095720788
2.512,-480.89343077218564
2.516,-490.8287068985868
2.52,-486.95294880976695
2.524,-462.32751066798005
2.528,-457.5084892503866
2.532,-459.5563162201094
2.536,-458.78369294041863
2.54,-459.0037326232437
2.544,-462.25768739720274
2.548,-463.4065683417713
2.552,-463.1792553206633
2.556,-462.2818427178992
2.56,-463.0217805039514
2.564,-483.65147547584553
2.568,-493.8299278580262
2.572,-485.16349411165675
2.576,-491.2660662893472
2.58,-488.97521029052155
2.584,-479.3868052643781
2.588,-479.8021263559586
2.592,-477.73062394283966
2.596,-480.0505819777226
2.6,-478.98455058477856
2.604,-470.34921039456907
2.608,-468.20239437283726
2.612,-469.5320435081687
2.616,-468.617269079436
2.62,-469.0064148317277
2.624,-472.6285775523607
2.628,-472.6071032448956
2.632,-474.3051792407174
2.636,-471.1540203080127
2.64,-473.04537036877525
2.644,-511.40332005417554
2.648,-529.8292210139944
2.652,-513.3421288171596
2.656,-526.4573374348614
2.66,-520.9135366651732
2.664,-465.3411444859069
2.668,-444.58980001336766
2.672,-462.1200690333455
2.676,-447.8347097860175
2.68,-454.10609721682704
2.684,-523.9369268404242
2.688,-548.3749359933577
2.692,-531.2097972454807
2.696,-541.1809449584846
2.7,-537.9759260023553
2.704,-536.6031139143686
2.708,-542.2157620151569
2.712,-536.4065412849485
2.716,-540.0104712312111
2.72,-539.0057405092065
2.724,-557.0888216498583
2.728,-571.7634839840562
2.732,-556.7365559931999
2.736,-568.9712429315489
2.74,-563.932022873713
2.744,-533.1885314704458
2.748,-530.0142283969766
2.752,-528.2648209358126
2.756,-531.8179353079645
2.76,-529.9712555061974
2.764,-517.7003191738418
2.768,-518.2480577666161
2.772,-514.6046408111873
2.776,-519.2686858766972
2.78,-516.9608364281884
2.784,-496.0416779032133
2.788,-491.88595525244506
2.792,-492.8417281436516
2.796,-493.5521534690538
2.8,-492.99076532880025
2.804,-491.08087095297606
2.808,-494.19815404973446
2.812,-488.9613199986322
2.816,-494.8047014241166
2.82,-491.94715305626255
2.824,-460.01118855598446
2.828,-449.9273353634196
2.832,-456.5656939395226
2.836,-452.5816196458054
2.84,-454.02212090750237
2.844,-468.54738418606945
2.848,-475.34305855836465
2.852,-468.94386886753324
2.856,-474.1076265666255
2.86,-471.971042214168
2.864,-461.904287905061
2.868,-464.3015156706876
2.872,-458.12597468561916
2.876,-465.9736901363629
2.88,-461.916197564878
2.884,-408.1073069401503
2.888,-388.76531415587925
2.892,-402.3821419535162
2.896,-394.49397212394973
2.9,-397.01845405376076
2.904,-393.9138291713394
2.908,-384.06132373544557
2.912,-397.14395959177637
2.916,-383.4578515801222
2.92,-390.1371477014782
2.924,-479.50646156979
2.928,-514.8820187691841
2.932,-486.95660714362884
2.936,-506.1943037606647
2.94,-498.90319593400005
2.944,-459.8744616670465
2.948,-455.94602070312544
2.952,-454.1832972731694
2.956,-457.78637083119816
2.96,-455.9740995754566
2.964,-449.71357713527254
2.968,-454.3960700919432
2.972,-446.73843339609766
2.976,-454.20278372554765
2.98,-450.95903445615556
2.984,-445.62038621450705
2.988,-459.2462378247268
2.992,-437.5188592719388
2.996,-461.48808961746875
3.0,-449.7737372712565
3.004,-329.79309765039164
3.008,-304.9568623497283
3.012,-304.38644527180287
3.016,-325.757273151985
3.02,-310.5373824187698
3.024,48.06411373541719
3.028,229.50588004640792
3.032,61.83842565193113
3.036,198.30001349739473
3.04,139.98359682318727
3.044,-394.93494923713547
3.048,-554.5151090535187
3.052,-452.9477804032202
3.056,-508.46649587196055
3.06,-490.81934401731655
3.064,-440.4861125745835
3.068,-441.310964257407
3.072,-437.2909210583274
3.076,-438.32285820751235
3.08,-439.06409362411546
3.084,-501.6619103694802
3.088,-538.2352074847148
3.092,-503.9578052958945
3.096,-530.8462212354372
3.1,-519.8249552897646
3.104,-441.3033925037621
3.108,-424.74126099084333
3.112,-431.6226103217016
3.116,-429.93361352648094
3.12,-429.99746412905057
3.124,-432.83508327312035
3.128,-438.4805154551535
3.132,-430.8373524217815
3.136,-438.4641013637906
3.14,-434.93484124643777
3.144,-403.7648293621692
3.148,-396.88873029026297
3.152,-399.2409487590502
3.156,-399.5843240980933
3.16,-398.983493581549
3.164,-391.5912737124032
3.168,-391.80243303359674
3.172,-389.08686963457285
3.176,-393.1233399010678
3.18,-390.9502204313472
3.184,-362.62972979728505
3.188,-353.0202932907359
3.192,-359.51902396145545
3.196,-355.73569135945615
3.2,-357.0169778962667
3.204,-363.9476923966783
3.208,-365.64243046169753
3.212,-364.72575728301877
3.216,-364.8690494419733
3.22,-365.0121306436898
3.224,-377.17448855410834
3.228,-385.12171138042544
3.232,-377.1194819812155
3.236,-383.6973630525845
3.24,-380.95689590745457
3.244,-365.89809247788946
3.248,-366.3077502188262
3.252,-362.393388544856
3.256,-367.4931399605622
3.26,-364.9504741704985
3.264,-344.2008632380713
3.268,-342.69735829753597
3.272,-339.00707807547684
3.276,-345.6788012253747
3.28,-341.90627470475215
3.284,-288.73711137932355
3.288,-270.5872317677188
3.292,-282.05247682335647
3.296,-276.9016452098778
3.3,-277.9873576026431
3.304,-257.72495445023776
3.308,-244.15629266424367
3.312,-257.0094225907102
3.316,-246.92911230709495
3.32,-251.07196811088596
3.324,-282.8692972347061
3.328,-291.0786344046441
3.332,-286.22974946719205
3.336,-288.931618794786
3.34,-287.982814757051
3.344,-277.7144172696846
3.348,-271.89011342262086
3.352,-278.6424785608727
3.356,-271.4559554853557
3.36,-275.0927282234362
3.364,-331.6931471671914
3.368,-356.72982543903163
3.372,-335.37402712439433
3.376,-351.201131213741
3.38,-344.8977276495347
3.384,-307.6947136871753
3.388,-304.5478586055569
3.392,-300.72337411982323
3.396,-307.82602513596333
3.4,-303.90583117772337
3.404,-255.86741399247262
3.408,-241.6221463456063
3.412,-249.278448354189
3.416,-246.91376635919957
3.42,-246.9774461659402
3.424,-229.28886714708824
3.428,-221.8696107558843
3.432,-226.61259247648655
3.436,-224.73869512750633
3.44,-224.98910189188857
3.444,-214.71808008824073
3.448,-209.88774270951964
3.452,-213.19330247100405
3.456,-211.6720737198415
3.46,-211.99810031044194
3.464,-209.45375814163347
3.468,-209.24895465213703
3.472,-207.8653688268122
3.476,-210.57225880774433
3.48,-208.95356705860456
3.484,-182.61282326223792
3.488,-172.9241784501737
3.492,-179.37295179713206
3.496,-176.21641278123067
3.5,-176.9984826334014
3.504,-170.30183172795452
3.508,-165.95807383165928
3.512,-169.27208764210397
3.516,-167.6543400077864
3.52,-167.9941872898851
3.524,-160.36693475838194
3.528,-155.8452961352265
3.532,-159.52381485888034
3.536,-157.32696077874027
3.54,-158.00406539880873
3.544,-156.0854366786952
3.548,-153.8727488660965
3.552,-155.78742645598234
3.556,-154.73732162199164
3.56,-154.99753456826878
3.564,-150.53174166337476
3.568,-147.46889733935114
3.572,-150.22891051254916
3.576,-148.33738033640955
3.58,-149.00650039012032
3.584,-147.5467614930436
3.588,-143.39787050974414
3.592,-149.606141621664
3.596,-142.13736039722374
3.6,-146.11634561921747
3.604,-216.46660512299084
3.608,-250.48764967938197
3.612,-219.46230101355664
3.616,-244.13403520364605
3.62,-233.80422791197833
3.624,-159.6364195860616
3.628,-147.66771868792483
3.632,-147.3125858451525
3.636,-154.2045284774317
3.64,-149.89599802588995
3.644,-115.42317443413744
3.648,-124.24794911443189
3.652,-96.18471037647554
3.656,-137.5137739229329
3.66,-114.30756201488386
3.664,281.061971734722
3.668,454.7392907888018
3.672,309.15127882747214
3.676,415.14495854213624
3.68,373.25694991233416
3.684,111.82040279432256
3.688,72.64587523623281
3.692,71.65616670142295
3.696,93.7402985915835
3.7,79.58851711792174
3.704,-129.28846405798853
3.708,-202.88663251517065
3.712,-152.43901875185045
3.716,-181.15184493305802
3.72,-171.8902235253862
3.724,-151.65118868335801
3.728,-156.6015089246598
3.732,-149.73073428762808
3.736,-154.50352424349785
3.74,-152.99736965222132
3.744,-166.14645995051376
3.748,-179.00338097150626
3.752,-165.00825790071346
3.756,-177.29800136486443
3.76,-171.88339728894252
3.764,-123.30236211973552
3.768,-110.04533059763392
3.772,-117.26990768697732
3.776,-114.69176643920986
3.78,-114.98010279958714
3.784,-96.57474473891477
3.788,-85.36968186712794
3.792,-96.08226438807803
3.796,-87.40578010217367
3.8,-91.07539143886612
3.804,-120.41781503283136
3.808,-127.29689270110632
3.812,-124.453956850275
3.816,-124.46080421142577
3.82,-125.03119123658175
3.824,-145.54146043742026
3.828,-156.29086836215794
3.832,-146.14982152201193
3.836,-154.66117105002786
3.84,-150.9133346072033
3.844,-112.47533858003284
3.848,-99.5050362503241
3.852,-108.76097639150751
3.856,-102.957178302206
3.86,-105.03324569190788
3.864,-114.94792712677784
3.868,-116.3223178528235
3.872,-115.87960418382472
3.876,-116.21078880171441
3.88,-115.98833573814964
3.884,-107.4837664043172
3.888,-102.45389810048341
3.892,-107.32918964203351
3.896,-103.35184485401801
3.9,-105.03535583346533
3.904,-118.69967266855278
3.908,-122.52703197026152
3.912,-119.8898623810076
3.916,-121.83483881928528
3.92,-120.97645192081282
3.924,-108.81584435557815
3.928,-103.6302145948858
3.932,-107.6839951074734
3.936,-105.2631382467034
3.94,-106.00138282445474
3.944,-99.14914833222511
3.948,-92.05467719395037
3.952,-100.1136245010993
3.956,-92.79110995711676
3.96,-96.07484593606091
3.964,-125.21602222236831
3.968,-132.62650771235613
3.972,-128.98879529097704
3.976,-130.03702522383725
3.98,-130.00944059392492
3.984,-135.7621761299116
3.988,-137.75108888002222
3.992,-136.74142090983688
3.996,-136.95488706064526
4.0,-137.00359752885993
4.004,-138.09205591264802
4.008,-137.44049311960225
4.012,-138.97497495835563
4.016,-136.95791506432894
4.02,-138.03144407279865
4.024,-152.84450239725658
4.028,-158.5355665250058
4.032,-153.9931978058391
4.036,-157.4367543668156
4.04,-155.9614350542912
4.044,-136.72274089226374
4.048,-127.29868203689065
4.052,-136.6235386439666
4.056,-128.2497418870107
4.06,-132.09880158401847
4.064,-174.61650173516853
4.068,-189.128702243592
4.072,-178.92516402664037
4.076,-185.09684873067337
4.08,-182.96688246627602
4.084,-174.64118364007302
4.088,-174.00034009126514
4.092,-173.90091032657915
4.096,-173.92575002360272
4.1,-174.00839619152066
4.104,-180.20019163717643
4.108,-183.74853270984312
4.112,-180.56283427263722
4.116,-182.83752363376738
4.12,-181.9872659607291
4.124,-180.4120858749421
4.128,-182.2315747661977
4.132,-179.45095276047206
4.136,-182.36027041714698
4.14,-180.96284789561705
4.144,-165.17884382659253
4.148,-159.49069165941344
4.152,-164.04133414971272
4.156,-160.44421846569443
4.16,-162.04581592967403
4.164,-185.15811482318665
4.168,-196.94781173273108
4.172,-184.9921065939803
4.176,-196.06505654585968
4.18,-190.85527891955113
4.184,-126.65431189914223
4.188,-101.97592711931992
4.192,-121.3364324889867
4.196,-107.99055808474579
4.2,-113.09638334747572
4.204,-139.74407605616568
4.208,-141.05538858066757
4.212,-145.0305365432839
4.216,-138.53227912786045
4.22,-142.1099315606047
4.224,-190.26419829074672
4.228,-206.883637803649
4.232,-196.08666218612282
4.236,-201.12442961471905
4.24,-200.01673272700756
4.244,-222.32236533442952
4.248,-238.1431858234407
4.252,-222.69220443743546
4.256,-234.83702856920362
4.26,-229.90231955273518
4.264,-203.88420826312836
4.268,-203.28803391227822
4.272,-199.21297312106134
4.276,-204.26484298311374
4.28,-201.96431178884848
4.284,-205.79637552004976
4.288,-222.7550080532114
4.292,-198.25189686765904
4.296,-224.37183418844248
4.3,-211.65918235921777
4.304,-89.60109704055061
4.308,-68.90042313958453
4.312,-60.479633339227476
4.316,-92.52299252312505
4.32,-71.12686376071765
4.324,392.89766860240104
4.328,622.7190026626794
4.332,412.0525799175877
4.336,581.7123421002904
4.34,509.2535990439329
4.344,-116.7985015136982
4.348,-290.30828465985354
4.352,-189.21542669181784
4.356,-235.7054165178764
4.36,-223.96199279591164
4.364,-274.96589133319935
4.368,-316.7357858100318
4.372,-280.1574064493501
4.376,-304.29035715795084
4.38,-295.88234769236647
4.384,-284.251435848578
4.388,-297.2389088117663
4.392,-280.426281668836
4.396,-295.0217886287334
4.4,-288.8675720931672
4.404,-250.51788109488174
4.408,-244.81528436900467
4.412,-245.56187094465457
4.416,-246.59312991700304
4.42,-245.9945687333983
4.424,-251.68185881312903
4.428,-259.7412615811496
4.432,-249.50837324939408
4.436,-259.76808035735365
4.44,-254.85848558032575
4.444,-197.71276867019048
4.448,-176.7566877159205
4.452,-193.07314482450292
4.456,-181.42634725024806
4.46,-186.1098275797291
4.464,-223.6483381906778
4.468,-233.89419995563242
4.472,-228.0946093685745
4.476,-230.3652610177933
4.48,-230.01562000053008
4.484,-243.70795272935865
4.488,-252.39767868257277
4.492,-244.03036583209658
4.496,-250.79723141917412
4.5,-247.93020550744066
4.504,-224.10903047423886
4.508,-217.23124290644466
4.512,-221.9112219622743
4.516,-218.75136305929942
4.52,-220.0345563726524
4.524,-233.99644226249006
4.528,-239.49578538242773
4.532,-235.08830883768667
4.536,-238.1189561440389
4.54,-236.9786147486618
4.544,-232.23158824917698
4.548,-232.27505904267107
4.552,-231.6419766876932
4.556,-232.09957994031367
4.56,-232.00787778108003
4.564,-240.0750194984153
4.568,-246.50974847364
4.572,-239.30707638127973
4.576,-245.9738007953598
4.58,-242.91670485357434
4.584,-213.9170296381713
4.588,-206.2978331021872
4.592,-209.77609322943573
4.596,-209.5621465561948
4.6,-208.95586719258276
4.604,-184.45136516204255
4.608,-171.9939575074612
4.612,-183.0318872977215
4.616,-174.73743725312886
4.62,-178.07308116923056
4.624,-197.23924193056925
4.628,-198.39337718886898
4.632,-201.29275205786695
4.636,-196.2148582730189
4.64,-199.1025505118453
4.644,-242.49949026205024
4.648,-259.68596656212924
4.652,-246.2874637843106
4.656,-255.36958433424203
4.66,-251.92723708269511
4.664,-231.72236194239105
4.668,-227.63260491807463
4.672,-229.76534887855797
4.676,-228.42901330089668
4.68,-229.02251674820317
4.684,-240.13933089753604
4.688,-245.65620494609794
4.692,-240.8616505350451
4.696,-244.22344962998534
4.7,-242.9796291584238
4.704,-241.09361028405326
4.708,-243.68777358612877
4.712,-240.12494609767984
4.716,-243.35851885058702
4.72,-241.96937637105077
4.724,-235.22025744307462
4.728,-235.76086056643368
4.732,-233.87945459050866
4.736,-235.74673312947132
4.74,-234.99349669806205
4.744,-241.28499513719686
4.748,-250.50798601748468
4.752,-238.28960935906784
4.756,-251.1339115301203
4.76,-244.7967149132298
4.764,-166.33238719321142
4.768,-137.09272603048538
4.772,-159.73016502240444
4.776,-143.81489580851485
4.78,-150.16041956443257
4.784,-204.50279649573645
4.788,-223.46232256559088
4.792,-207.9551666699336
4.796,-220.0975548169435
4.8,-214.85354820259815
4.804,-164.3743369387012
4.808,-148.51782430564825
4.812,-159.07879525781487
4.816,-152.9335031512697
4.82,-155.04424655050033
4.824,-169.68581517216208
4.828,-176.78560893417222
4.832,-168.38809084116866
4.836,-177.5505014431262
4.84,-172.83396615063825
4.844,-106.3665477405054
4.848,-80.6805037044664
4.852,-99.80302235539097
4.856,-88.2079244637939
4.86,-92.04837654129557
4.864,-88.39318788142224
4.868,-75.05359087082174
4.872,-91.89081834547243
4.876,-75.6150705007287
4.88,-83.22943615999232
4.884,-163.55648314409598
4.888,-190.18903574416666
4.892,-171.48115007316193
4.896,-183.01265811617924
4.9,-178.92020967436676
4.904,-162.03779070029546
4.908,-161.86909352448345
4.912,-159.22317748243054
4.916,-162.6314403110458
4.92,-160.9528825890816
4.924,-147.67492350779395
4.928,-145.56563463012878
4.932,-145.97545449985375
4.936,-145.5648683016996
4.94,-146.05695738563182
4.944,-190.09254356108318
4.948,-226.52754564675226
4.952,-181.9705053942617
4.956,-227.82150261499885
4.96,-205.2528831329605
4.964,62.942617424731736
4.968,149.52872316347708
4.972,99.23306038376502
4.976,113.76511417749515
4.98,115.46350772327644
4.984,410.78294570038577
4.988,594.1968889332938
4.992,409.87544457980704
4.996,568.1526874095099
5.0,497.9836269505348
5.004,-147.2969262431488
5.008,-333.80803227059096
5.012,-221.01399474521045
5.016,-275.8016546757113
5.02,-260.88701259034264
5.024,-295.0164357917239
5.028,-334.0737872800778
5.032,-298.0078413819457
5.036,-322.84972460554235
5.04,-313.8332703810209
5.044,-285.9628437438473
5.048,-289.06705131598886
5.052,-282.7747602689721
5.056,-287.60757334720097
5.06,-285.99167907657016
5.064,-296.286921831693
5.068,-306.2095984178497
5.072,-296.61451653091683
5.076,-303.5000277408487
5.08,-300.9538412706016
5.084,-294.5104467150673
5.088,-296.228979888524
5.092,-294.12858580590785
5.096,-294.93891753347634
5.1,-295.0329269084726
5.104,-315.84479338599414
5.108,-328.0424215488675
5.112,-317.0059862236238
5.116,-324.93583407771837
5.12,-321.9433193789095
5.124,-315.3497375876029
5.128,-320.81228042050486
5.132,-312.0902238738021
5.136,-321.3947493583672
5.14,-316.8482132516016
5.144,-263.8458622725041
5.148,-244.40652400313982
5.152,-259.5891580605236
5.156,-248.7685389556799
5.16,-253.11365268809385
5.164,-284.45300950755933
5.168,-290.80476264258607
5.172,-289.45098090907373
5.176,-287.22412216836915
5.18,-289.09641354382734
5.184,-330.87815907012185
5.188,-349.86953885358594
5.192,-334.0083199552232
5.196,-345.2545500374867
5.2,-340.8993087482504
5.204,-318.16583626531536
5.208,-316.1196705607819
5.212,-314.64082419412165
5.216,-317.5226693132036
5.22,-315.94494391171673
5.224,-297.5715433065202
5.228,-291.31976815362725
5.232,-296.0326750169025
5.236,-292.582823159015
5.24,-294.04665151379015
5.244,-310.44504377986425
5.248,-317.0501544149532
5.252,-311.4558644698237
5.256,-315.7994591249507
5.26,-313.94279531742967
5.264,-294.3218350176495
5.268,-285.92844629459523
5.272,-294.03051243934476
5.276,-286.53361576874426
5.28,-290.1284017003129
5.284,-336.1263690770495
5.288,-353.97194242501524
5.292,-340.1403513133551
5.296,-349.2931883818264
5.3,-345.9301390434203
5.304,-333.99995813639623
5.308,-335.8248257095058
5.312,-331.32135102878715
5.316,-336.39472880811775
5.32,-333.9182999241076
5.324,-307.9416471039559
5.328,-299.34589282513974
5.332,-305.7152678875163
5.336,-301.16355750195123
5.34,-303.0594182067696
5.344,-322.87213392856444
5.348,-330.36505967982185
5.352,-324.4109620426021
5.356,-328.6132598308516
5.36,-326.9560926234252
5.364,-314.39453751260146
5.368,-309.7803555153005
5.372,-314.49787164055556
5.376,-309.42382234867347
5.38,-312.11480410473683
5.384,-357.9265250837029
5.388,-379.0350973037741
5.392,-360.6760600415848
5.396,-374.3521606917405
5.4,-368.86247501190974
5.404,-338.6565957245007
5.408,-336.9122533176278
5.412,-332.8471936976396
5.416,-339.52491712534953
5.42,-335.86209942833796
5.424,-290.08506636641613
5.428,-274.29183962323634
5.432,-285.6937365860968
5.436,-278.1213058456736
5.44,-281.08911479809524
5.444,-311.11744140604566
5.448,-324.72030775708157
5.452,-311.3945504764306
5.456,-323.3955745856685
5.46,-317.8085510501909
5.464,-256.2074241097778
5.468,-234.8296682724161
5.472,-250.45391083470471
5.476,-240.24372600450974
5.48,-244.101042627881
5.484,-271.9072088432076
5.488,-281.21236754118485
5.492,-273.09954364149183
5.496,-280.28705336194224
5.5,-276.8730526748645
5.504,-232.67858996779447
5.508,-214.87396750303955
5.512,-229.40933986044573
5.516,-218.9301672188998
5.52,-223.1111081366577
5.524,-249.67741049709227
5.528,-253.79003941103045
5.532,-254.0660691755974
5.536,-251.08759261286116
5.54,-253.09513842654655
5.544,-288.8670158122488
5.548,-303.68390066619787
5.552,-292.22403856094695
5.556,-299.38968318728615
5.56,-296.9647967261383
5.564,-299.50096035501986
5.568,-307.9961353395687
5.572,-297.83137414112656
5.576,-306.6634851361137
5.58,-302.90403915732713
5.584,-286.01387714107216
5.588,-289.0139761455027
5.592,-281.59877419139974
5.596,-289.3936335362695
5.6,-285.92839438918656
5.604,-290.14353946447017
5.608,-315.23273172865703
5.612,-276.9571084912262
5.616,-320.52069746712556
5.62,-298.13427361500874
5.624,-17.630884552809473
5.628,76.32519667443067
5.632,18.525468089206736
5.636,39.799874624988526
5.64,38.40772699414704
5.644,293.88043662932125
5.648,460.4564676671757
5.652,290.09246764384574
5.656,438.2617664392801
5.66,371.8258704012773
5.664,-250.5334085061138
5.668,-435.7280273801549
5.672,-319.03508126642697
5.676,-380.2372058329504
5.68,-361.7259939848934
5.684,-347.28120022241984
5.688,-367.9715713773688
5.692,-346.07877192834155
5.696,-360.9785368537052
5.7,-355.93444503991304
5.704,-364.5267104067657
5.708,-381.46378490801584
5.712,-363.1555290774587
5.716,-377.81184083667847
5.72,-371.8452689245871
5.724,-340.0655270256307
5.728,-336.85793907505786
5.732,-335.9470253238195
5.736,-337.848780091584
5.74,-336.9875833739996
5.744,-340.52482258482183
5.748,-346.3537771169506
5.752,-339.5598690079105
5.756,-345.522551526596
5.76,-342.9216397238363
5.764,-323.1457999229257
5.768,-317.9483617445679
5.772,-321.61861830614026
5.776,-318.58072817035077
5.78,-320.06511989217614
5.784,-343.59102721967156
5.788,-353.3720329098457
5.792,-346.27146438246524
5.796,-349.68543668888583
5.8,-349.03641068351277
5.804,-378.01026716279944
5.808,-399.36472943841716
5.812,-376.66286196391997
5.816,-396.7381279032157
5.82,-387.6997123417775
5.824,-306.0627832050216
5.828,-283.219507394043
5.832,-296.7233861733905
5.836,-290.1499183394497
5.84,-292.030529124269
5.844,-297.1540269256375
5.848,-299.2775169869791
5.852,-296.0423890573787
5.856,-300.0925241253328
5.86,-297.9082918865277
5.864,-268.8625623059491
5.868,-258.7872465545027
5.872,-265.54377468439753
5.876,-261.98152568699624
5.88,-263.00979102069215
5.884,-260.4698182417948
5.888,-257.3528021293224
5.892,-260.4312735538064
5.896,-258.06978619768523
5.9,-259.0283993975107
5.904,-266.5497925246799
5.908,-269.30048616410056
5.912,-266.6827243567042
5.916,-269.18481799197656
5.92,-267.9492981751971
5.924,-251.53448586181432
5.928,-245.15718131573047
5.932,-250.05084845735792
5.936,-246.8994541507582
5.94,-248.02270114665944
5.944,-249.7850165041246
5.948,-247.37252959195402
5.952,-251.13530723826233
5.956,-246.99180425371907
5.96,-249.0845570685846
5.964,-275.47829668518295
5.968,-285.35645957282793
5.972,-277.8608919727957
5.976,-282.74648992353826
5.98,-280.9580070405739
5.984,-274.21479591915016
5.988,-274.6037533949998
5.992,-273.1381052605713
5.996,-274.5914577289418
6.0,-273.98933903528393
6.004,-275.48849281557625
6.008,-279.35268769947527
6.012,-274.2271717425314
6.016,-279.35257397948754
6.02,-276.91238752208585
6.024,-253.83058593453484
6.028,-247.94443943894078
6.032,-250.59711505523077
6.036,-250.30604095061997
6.04,-249.9695680387212
6.044,-238.57652432337002
6.048,-234.03333695763882
6.052,-237.27761665429676
6.056,-235.34543173260863
6.06,-236.01923878073237
6.064,-242.2543790520239
6.068,-246.24218268422666
6.072,-241.18058489913497
6.076,-246.78887303769494
6.08,-243.87274183676988
6.084,-202.98281656970147
6.088,-186.517066039058
6.092,-199.8191296686043
6.096,-190.3180873378433
6.1,-194.11450875555877
6.104,-221.5253180022875
6.108,-228.91276770989447
6.112,-224.0879555149839
6.116,-227.129907855294
6.12,-225.96454152636204
6.124,-217.38141839191775
6.128,-215.21621901157786
6.132,-216.33992975696188
6.136,-215.902183093825
6.14,-216.00433674916724
6.144,-219.45814279728393
6.148,-223.42075141088742
6.152,-217.69199114241505
6.156,-224.3990770338344
6.16,-220.8400886025317
6.164,-170.04026123924274
6.168,-150.16582333373978
6.172,-165.16534201760078
6.176,-156.0067593622323
6.18,-159.04371639882606
6.184,-152.5942267858417
6.188,-138.94068921040932
6.192,-156.0906761597772
6.196,-139.3747315887559
6.2,-147.29779260808195
6.204,-226.77838927842623
6.208,-249.85903343690717
6.212,-237.0307758432407
6.216,-241.10315812705775
6.22,-241.0956220695061
6.224,-289.16474376164814
6.228,-316.62741106712525
6.232,-291.24432109709494
6.236,-310.6843617063405
6.24,-302.7721565482576
6.244,-259.7485497132885
6.248,-257.08193565243585
6.252,-252.40898404356378
6.256,-259.24659838517664
6.26,-255.9122024554002
6.264,-254.33063177308938
6.268,-274.26985390253816
6.272,-242.82445230694452
6.276,-278.3910648666543
6.28,-260.2544996715912
6.284,-59.123970764189636
6.288,-6.208934127644655
6.292,-23.493671341905497
6.296,-38.36848829463584
6.3,-22.881486005742577
6.304,420.787174769744
6.308,655.5748016147653
6.312,432.6192432423184
6.316,616.9840978037398
6.32,536.1586871248521
6.324,-173.7261811212188
6.328,-376.34148955507186
6.332,-252.25356958266428
6.336,-315.20002387691085
6.34,-296.71894637802933
6.344,-289.3465997371741
6.348,-310.9524198015574
6.352,-289.765952741282
6.356,-303.2393621515433
6.36,-298.95165793407875
6.364,-310.28340871224054
6.368,-324.4113816696909
6.372,-311.14110342565596
6.376,-319.90479312030266
6.38,-316.9575411590211
6.384,-321.80883962533153
6.388,-331.1716368820647
6.392,-321.424618968459
6.396,-328.70444656686885
6.4,-325.93580468857857
6.404,-319.1579750658754
6.408,-322.033432510226
6.412,-317.9332623954197
6.416,-321.1665962383848
6.42,-319.98347912079015
6.424,-324.1659258611999
6.428,-330.8405211391948
6.432,-322.9258657277389
6.436,-330.2131625602939
6.44,-326.87548405409467
6.444,-294.9711258983465
6.448,-284.5409426780957
6.452,-292.354442987247
6.456,-286.763370954778
6.46,-289.08118149403134
6.464,-308.7252286294796
6.468,-313.72722527549325
6.472,-311.78366075527646
6.476,-311.0845229702755
6.48,-312.0785846421407
6.484,-342.18088926117713
6.488,-357.33170859270007
6.492,-343.8510933043305
6.496,-353.96781973609313
6.5,-349.8771827028157
6.504,-327.1349088892666
6.508,-325.4495372538547
6.512,-322.84206193795933
6.516,-327.6111729359784
6.52,-324.86721351554894
6.524,-284.8366738108266
6.528,-268.4795507979348
6.532,-282.12614175754914
6.536,-271.8412338069498
6.54,-276.14941276866625
6.544,-311.1551500887702
6.548,-320.49836210183224
6.552,-315.4290830169239
6.556,-317.143283630769
6.56,-317.0289692601929
6.564,-331.0631315468282
6.568,-338.6562151383966
6.572,-332.15889133603076
6.576,-336.5400536887479
6.58,-334.9688025050693
6.584,-335.0344433945312
6.588,-340.2691124413463
6.592,-333.03412807649795
6.596,-340.5611664375099
6.6,-336.8387099332626
6.604,-291.5774584175656
6.608,-274.01940852658555
6.612,-288.46919022597353
6.616,-277.5635456827086
6.62,-282.16532745828493
6.624,-321.9122760996512
6.628,-333.832615143871
6.632,-325.9919026198573
6.636,-330.4692444827805
6.64,-328.96266838587235
6.644,-322.1012454381682
6.648,-319.82527878189416
6.652,-322.6594364415619
6.656,-319.0651565614556
6.66,-321.11038262796325
6.664,-356.593011823893
6.668,-372.43762478128247
6.672,-359.03454426848555
6.676,-368.7155551738481
6.68,-364.88423346825374
6.684,-343.45414229329845
6.688,-340.2711766312497
6.692,-341.0416187920384
6.696,-340.84101924582285
6.7,-341.0316777273388
6.704,-358.22575659030855
6.708,-370.79422371763366
6.712,-356.93112519261064
6.716,-369.6542518802299
6.72,-363.7713040232658
6.724,-309.98940775576625
6.728,-295.9707532947606
6.732,-302.69632719192646
6.736,-301.5574783761578
6.74,-300.91677847296154
6.744,-269.17631031123426
6.748,-253.4998369481707
6.752,-267.26024167742736
6.756,-256.76692899336547
6.76,-261.15646963706797
6.764,-297.4897227853525
6.768,-308.6967415703052
6.772,-300.67509134383255
6.776,-305.9557196635835
6.78,-303.9412313874787
6.784,-295.1219116842416
6.788,-296.6710053784951
6.792,-291.82797347600444
6.796,-298.6327363072871
6.8,-294.80060909442824
6.804,-234.7431510582283
6.808,-209.05873919829884
6.812,-230.59317473012084
6.816,-214.89241037974006
6.82,-221.2007396988646
6.824,-258.0512942181568
6.828,-262.04675164310595
6.832,-264.6546142856363
6.836,-258.4462023545874
6.84,-262.19420830646806
6.844,-317.2998452328584
6.848,-338.13762263957074
6.852,-322.6981130485646
6.856,-332.2047490172341
6.86,-328.9277364759117
6.864,-323.4968768469607
6.868,-327.8675654597277
6.872,-321.99927264704735
6.876,-326.96495891546425
6.88,-324.948485423287
6.884,-321.45044701374263
6.888,-325.9451603217376
6.892,-319.95805663675594
6.896,-324.59871274035424
6.9,-323.0080406123518
6.904,-352.45347128157454
6.908,-385.0917888022145
6.912,-342.9042271532524
6.916,-387.3076013380027
6.92,-364.97822248609276
6.924,-98.63714382881264
6.928,-8.641211575058362
6.932,-66.96168811070383
6.936,-40.92495593949202
6.94,-45.73582310624406
6.944,128.9556759032107
6.948,254.62126240636172
6.952,121.33954826917304
6.956,240.39434397694055
6.96,185.78228981578783
6.964,-339.35949513745084
6.968,-500.27109275686473
6.972,-395.31986189582113
6.976,-453.0805128552315
6.98,-434.611329579009
6.984,-400.145295632113
6.988,-412.287583436509
6.992,-396.20466441462384
6.996,-408.34196085594704
7.0,-403.9107404281417
7.004,-403.6265243203735
7.008,-414.19677644397103
7.012,-402.167368826261
7.016,-411.59058999498603
7.02,-407.9047366394337
7.024,-399.384006808464
7.028,-404.69103168130243
7.032,-396.789302876327
7.036,-404.09880582334495
7.04,-400.89125174921196
7.044,-381.94492674974845
7.048,-379.79917059735584
7.052,-379.5373920808275
7.056,-380.19107594067987
7.06,-380.02090170899777
7.064,-394.6754775256277
7.068,-406.38686520510123
7.072,-393.4103991529015
7.076,-405.16050696367563
7.08,-399.7857643690677
7.084,-352.7795386738389
7.088,-340.45368573641906
7.092,-347.1099717637813
7.096,-344.43651430072214
7.1,-345.0009279218222
7.104,-343.98479914545226
7.108,-344.73461609314637
7.112,-342.47919152040885
7.116,-345.79045121717945
7.12,-343.8983132252761
7.124,-315.35038057987566
7.128,-303.592303757784
7.132,-313.3762418489025
7.136,-306.02156386838715
7.14,-309.1202339692681
7.144,-336.76382652237703
7.148,-345.9984365524555
7.152,-339.04775424773766
7.156,-343.7793841795072
7.16,-341.9419117863672
7.164,-332.68470334293903
7.168,-332.5292426815105
7.172,-330.6450682075432
7.176,-333.5171559622831
7.18,-331.919450463022
7.184,-311.18910808259756
7.188,-303.86969816722785
7.192,-309.1062839887366
7.196,-305.8573776354483
7.2,-307.038603812332
7.204,-315.9384368697536
7.208,-320.4420787512806
7.212,-314.8559300694415
7.216,-321.36257781317533
7.22,-317.80006089464337
7.224,-258.3755305612767
7.228,-230.53629706253568
7.232,-255.89463989132304
7.236,-235.4597079316944
7.24,-244.34857962924457
7.244,-318.62725506089845
7.248,-338.401439316822
7.252,-327.55658101455026
7.256,-331.6292619556673
7.26,-331.0382438592525
7.264,-350.37630279648766
7.268,-361.39268893298333
7.272,-351.44755101576754
7.276,-359.0768334706651
7.28,-355.8767694575199
7.284,-328.3305892905018
7.288,-318.51411604602794
7.292,-327.0368411204715
7.296,-319.75105790646643
7.3,-323.15703949220944
7.304,-362.10287520402875
7.308,-376.0160460057447
7.312,-365.99703790961536
7.316,-371.8499973166827
7.32,-369.97028330639574
7.324,-373.8782386310955
7.328,-381.25845686901874
7.332,-372.4723380748381
7.336,-380.5902105710655
7.34,-376.8422662091611
7.344,-342.15045459003966
7.348,-331.9011388716134
7.352,-338.44037921346404
7.356,-334.924356887782
7.36,-336.0201713201511
7.364,-335.34536659886743
7.368,-331.833078515994
7.372,-336.7415733120203
7.376,-331.3431139085282
7.38,-334.14575892785376
7.384,-373.2300619034921
7.388,-389.685709284756
7.392,-375.56439265814447
7.396,-386.5044497705939
7.4,-381.8081541252932
7.404,-338.473730469669
7.408,-323.03526097501145
7.412,-335.9739528400347
7.416,-325.38162769047455
7.42,-330.2244386205026
7.424,-386.141107555085
7.428,-407.88037137128225
7.432,-390.25206331028477
7.436,-402.90074931155436
7.44,-397.82112410025223
7.444,-365.438273365416
7.448,-358.9506900656315
7.452,-361.6902692690173
7.456,-360.80760526048766
7.46,-361.0148336054023
7.464,-369.004246401609
7.468,-375.98092364400526
7.472,-367.3123997126079
7.476,-376.3075629678688
7.48,-371.7711744600164
7.484,-312.95128014729033
7.488,-288.618368024906
7.492,-309.8077472559809
7.496,-292.81253436215934
7.5,-300.3219952604435
7.504,-371.7779609606285
7.508,-394.09632334370536
7.512,-379.8662158730439
7.516,-386.4770958578037
7.52,-385.0411898363266
7.524,-415.6050053575565
7.528,-437.1264326813908
7.532,-416.1142096732387
7.536,-432.25929738980363
7.54,-425.8092163514007
7.544,-408.7469850838593
7.548,-420.5703197990117
7.552,-400.7780660409343
7.556,-421.521574704584
7.56,-411.5929607700039
7.564,-342.1121674491785
7.568,-340.4216341972587
7.572,-322.93993296223323
7.576,-351.681438388528
7.58,-335.08903162849924
7.584,-113.15121576110677
7.588,-42.25034741165036
7.592,-80.20027176472259
7.596,-75.27248150877571
7.6,-69.11736163734841
7.604,261.23618248250165
7.608,451.60771876938423
7.612,264.3456864887274
7.616,422.75247816222236
7.62,352.00416067074616
7.624,-271.0899647560957
7.628,-448.574292726706
7.632,-340.0510304964841
7.636,-394.47550193110425
7.64,-378.738011988958
7.644,-380.93053267090704
7.648,-402.46011392867905
7.652,-382.57042159763165
7.656,-394.59471735197184
7.66,-390.9667791063407
7.664,-405.4407605609542
7.668,-418.4621478861648
7.672,-407.71925450919747
7.676,-413.2417036766353
7.68,-412.0432429887705
7.684,-439.4179043058832
7.688,-456.1498068820101
7.692,-442.0027458590676
7.696,-450.7392835490104
7.7,-447.9690175890442
7.704,-459.8804626310904
7.708,-473.1120549750232
7.712,-459.7488880053342
7.716,-469.7265507848402
7.72,-465.8946907554281
7.724,-458.09033767730944
7.728,-464.0230718649484
7.732,-455.48203106826935
7.736,-463.3162553650301
7.74,-459.8710401880785
7.744,-438.5687988037421
7.748,-434.97876416545654
7.752,-436.6568394324625
7.756,-434.9613928664361
7.76,-436.10127283016254
7.764,-471.82605102472877
7.768,-492.6013046285708
7.772,-472.12629069569715
7.776,-489.1145903249294
7.78,-481.7005782216932
7.784,-426.2171245227896
7.788,-413.9741377196398
7.792,-419.1685269519252
7.796,-418.28746656423186
7.8,-417.9580216594541
7.804,-406.48276023701845
7.808,-401.9369920087116
7.812,-405.9089145495039
7.816,-402.19750646584396
7.82,-404.1165102926864
7.824,-436.95581951459985
7.828,-452.36506039055877
7.832,-439.14312874273094
7.836,-448.251718787889
7.84,-444.92461567455894
7.844,-447.751268483098
7.848,-461.308975983198
7.852,-443.33934917964046
7.856,-461.0848701710813
7.86,-452.6135147870595
7.864,-374.90649784401353
7.868,-354.69648554598314
7.872,-364.77718096745605
7.876,-362.1334170846142
7.88,-361.9218576446656
7.884,-336.91868363326097
7.888,-326.310937963598
7.892,-334.14563788488056
7.896,-329.37950325258225
7.9,-331.0534577448595
7.904,-340.3681109888054
7.908,-343.41891725735377
7.912,-340.73009068759274
7.916,-342.8277558838967
7.92,-341.9770569657897
7.924,-342.43805922865647
7.928,-346.66314611385286
7.932,-340.8459894276892
7.936,-346.5172865294255
7.94,-343.8959144056416
7.944,-329.4190315922471
7.948,-331.39467995578536
7.952,-324.5292666302478
7.956,-333.7134282432531
7.96,-328.73238547208825
7.964,-268.599819993894
7.968,-248.88776038810326
7.972,-261.82754028790157
7.976,-254.94734606896975
7.98,-257.04616497459915
7.984,-261.5839293200377
7.988,-262.8304752888959
7.992,-260.2529747828123
7.996,-264.2332702841966
8.0,-261.85009428421716
8.004,-223.55852322641348
8.008,-207.78272912554593
8.012,-220.67182869909936
8.016,-211.25867768712595
8.02,-215.16794809271633
8.024,-250.75910176764575
8.028,-264.27668973393526
8.032,-252.57322528417663
8.036,-261.8408104916325
8.04,-257.83740110344957
8.044,-231.63148270668535
8.048,-229.81949058354814
8.052,-225.3998931021948
8.056,-233.55352132142855
8.06,-228.71114726503635
8.064,-160.15874594309753
8.068,-135.33663080944734
8.072,-152.9343796725215
8.076,-142.7003202963071
8.08,-146.08696657404803
8.084,-155.36163919099343
8.088,-156.72576668603872
8.092,-154.1429345091947
8.096,-158.7853421523656
8.1,-155.7889751658021
8.104,-98.56827044910557
8.108,-73.08658093675417
8.112,-94.36383466062712
8.116,-79.27785773747362
8.12,-85.21514673188359
8.124,-119.41051542393488
8.128,-126.55506253988787
8.132,-122.05518869300211
8.136,-125.96442295701972
8.14,-123.85217333504845
8.144,-80.43921469300273
8.148,-57.45869813758334
8.152,-79.81894461667802
8.156,-60.81719273131401
8.16,-69.39559978215924
8.164,-148.63336068268168
8.168,-172.98759207669252
8.172,-156.7421410172067
8.176,-165.9215205411374
8.18,-162.932196282272
8.184,-161.62581445760324
8.188,-167.6621872757947
8.192,-160.32056974413433
8.196,-166.29529416529437
8.2,-163.9471101265817
8.204,-170.83749940427074
8.208,-186.6417151208045
8.212,-165.62696828955637
8.216,-186.3313019041658
8.22,-176.58713771951352
8.224,-121.9630111358929
8.228,-136.41284400871882
8.232,-93.73008909994665
8.236,-155.77974096770544
8.24,-119.68235550112614
8.244,472.4722234316907
8.248,735.6764582212713
8.252,506.6355278703368
8.256,681.2853933845761
8.26,607.9764228347415
8.264,87.38652816499796
8.268,-26.211769115292384
8.272,20.461261619666093
8.276,16.61631962102432
8.28,10.325216323302913
8.284,-164.6674132015771
8.288,-228.64400714722356
8.292,-187.53323687132092
8.296,-205.71577630209907
8.3,-202.12067254052184
8.304,-270.2853023321563
8.308,-310.4798421539234
8.312,-276.1067826497442
8.316,-299.02109138062633
8.32,-290.7738960660627
8.324,-275.6111322719897
8.328,-285.8075242055882
8.332,-271.79044567602426
8.336,-283.88659362048753
8.34,-278.825375010766
8.344,-261.0600369534484
8.348,-266.6270038809816
8.352,-255.4190798067509
8.356,-268.0101470700896
8.36,-261.6739316350692
8.364,-195.3544958680291
8.368,-174.26861515361884
8.372,-188.65229620036817
8.376,-180.03504635944597
8.38,-183.1046617793601
8.384,-198.85027519815898
8.388,-202.25614506239825
8.392,-200.1754804302125
8.396,-201.54923724042203
8.4,-200.9720868597986
8.404,-195.15294567634814
8.408,-193.11985703214785
8.412,-194.5963868203637
8.416,-193.71224684405954
8.42,-194.00590301846609
8.424,-193.49528210079404
8.428,-192.26502458369947
8.432,-193.84594484536333
8.436,-192.27735753647647
8.44,-193.03856442542067
8.444,-200.6395559206994
8.448,-202.87446318889357
8.452,-201.55999693074327
8.456,-202.10017666235805
8.46,-202.0045107222007
8.464,-204.29401120084214
8.468,-205.72746764131537
8.472,-204.3094949823653
8.476,-205.56766664582588
8.48,-204.9654283695682
8.484,-196.23531776753092
8.488,-191.5800445197286
8.492,-196.63619812475628
8.496,-191.56443130064355
8.5,-194.15312453190688
8.504,-230.57576292076453
8.508,-246.8106909286377
8.512,-231.97764265879286
8.516,-244.2980495524493
8.52,-238.72627267393335
8.524,-184.33006407934835
8.528,-166.38214814933414
8.532,-179.10946706471407
8.536,-171.41055347092635
8.54,-174.07194403358238
8.544,-177.6580915982993
8.548,-172.8240833172771
8.552,-179.78068210518617
8.556,-172.88079949224291
8.56,-176.1551490228377
8.564,-202.43866970161469
8.568,-206.8379899229385
8.572,-207.50756449991772
8.576,-203.27530818652778
8.58,-206.2137990080014
8.584,-259.5642040976284
8.588,-283.0065354919927
8.592,-262.98160983305746
8.596,-278.0042176868063
8.6,-271.7273477598472
8.604,-224.0016664447795
8.608,-210.557170340165
8.612,-219.77247300477615
8.616,-213.54603154193313
8.62,-216.12562253189066
8.624,-242.4233663526311
8.628,-252.83164400718286
8.632,-243.98993191058202
8.636,-250.7154767521493
8.64,-247.87651684554407
8.644,-227.16519145421145
8.648,-222.254724709208
8.652,-224.7838896859798
8.656,-223.7642742243995
8.66,-224.00439304022154
8.664,-224.7539379406821
8.668,-225.3638611577034
8.672,-224.6015033188912
8.676,-225.2582750091905
8.68,-224.99439745588168
8.684,-226.16947023753565
8.688,-228.22444287670163
8.692,-225.62317992678666
8.696,-228.0896910447888
8.7,-226.94896008201493
8.704,-219.61319500967687
8.708,-219.44861144270914
8.712,-217.73801214075277
8.716,-220.473383806463
8.72,-218.90326428989874
8.724,-198.19097202755987
8.728,-190.85247647023706
8.732,-196.09094805226522
8.736,-192.93213726842487
8.74,-194.03568693582392
8.744,-198.51722653786098
8.748,-199.24469484733305
8.752,-198.80192701889246
8.756,-199.16008837052087
8.76,-198.99404536187163
8.764,-199.37589271996782
8.768,-201.25261460017688
8.772,-198.1324376452851
8.776,-201.99607486469736
8.78,-199.86497464511552
8.784,-169.56454971101536
8.788,-157.65770314001722
8.792,-166.7979574162475
8.796,-161.10905645835825
8.8,-163.03923669250202
8.804,-158.07111031596105
8.808,-147.75752716393418
8.812,-161.7120950625712
8.816,-146.71707897039948
8.82,-154.46058629394895
8.824,-254.4882287454429
8.828,-294.0443490098861
8.832,-261.9306831739961
8.836,-284.7588381583642
8.84,-275.63579932357374
8.844,-223.9277414652485
8.848,-216.55258666589168
8.852,-217.13040345404667
8.856,-219.01357163657997
8.86,-217.99265095481152
8.864,-234.5665974575794
8.868,-255.1470719472131
8.872,-228.94688715139802
8.876,-254.56660143569786
8.88,-242.43622713248718
8.884,-168.45802638718052
8.888,-180.352090343866
8.892,-135.24021259193515
8.896,-203.96100057817773
8.9,-163.13503971698609
8.904,525.5400620286896
8.908,839.6072104701409
8.912,559.0454071073528
8.916,780.1747226599196
8.92,684.542159178574
8.924,-73.32784890885355
8.928,-271.5792210470487
8.932,-159.93826629526123
8.936,-207.86600031835349
8.94,-197.05037483927057
8.944,-276.86168815556846
8.948,-326.8250289191239
8.952,-286.177120172231
8.956,-310.8438580449189
8.96,-302.8377218691861
8.964,-310.9950313489694
8.968,-331.3978818206597
8.972,-309.5880779000884
8.976,-326.65784594294297
8.98,-319.735993423514
8.984,-287.44834918011264
8.988,-285.8019207277874
8.992,-282.8237256654232
8.996,-286.9278309079522
9.0,-284.90509760358435
9.004,-270.15665816401327
9.008,-266.6643808568541
9.012,-269.1207929750562
9.016,-266.89488512397793
9.02,-268.082155687249
9.024,-286.87872346107
9.028,-294.13167310983664
9.032,-289.296241299082
9.036,-291.1917930166473
9.04,-291.0533261873419
9.044,-311.15389726132935
9.048,-322.665012259161
9.052,-312.50008282479155
9.056,-319.427542212208
9.06,-316.93862629385836
9.064,-319.31569391468844
9.068,-328.60094249833065
9.072,-316.69620903234414
9.076,-328.1716293312371
9.08,-322.7168790288083
9.084,-272.65983530730165
9.088,-258.428822567271
9.092,-267.10625874425915
9.096,-262.72852526467125
9.1,-264.0313908625079
9.104,-266.1179857267253
9.108,-265.80617868300794
9.112,-266.0090699712151
9.116,-266.201558675797
9.12,-265.9756411494159
9.124,-258.95713345984495
9.128,-254.8680454769671
9.132,-259.24907646650405
9.136,-255.00829489965864
9.14,-257.1282711322166
9.144,-284.1317562593976
9.148,-295.01686516193206
9.152,-285.99989587251065
9.156,-292.5545437058825
9.16,-289.886778900092
9.164,-273.9121136660378
9.168,-271.5429286031794
9.172,-271.48238191670185
9.176,-272.89678674417075
9.18,-271.93037756717285
9.184,-256.48543809510454
9.188,-249.87536071690516
9.192,-255.76220427134254
9.196,-250.86789824520756
9.2,-253.12652698023
9.204,-278.5659453645699
9.208,-288.7393979229764
9.212,-279.96130267354266
9.216,-286.92682059348834
9.22,-283.83970482050967
9.224,-253.95594835348146
9.228,-243.01175777591376
9.232,-252.27934805952594
9.236,-244.72337457875997
9.24,-248.19467067074459
9.244,-286.86298306413005
9.248,-301.8957403969095
9.252,-289.41398885141194
9.256,-298.7412605195013
9.26,-294.8160507268326
9.264,-264.9406644777237
9.268,-256.7469748321393
9.272,-262.1195779034138
9.276,-258.7111998419911
9.28,-260.06816841259007
9.284,-273.2206426493368
9.288,-278.38214360656934
9.292,-274.1465215813265
9.296,-277.04601962905355
9.3,-275.96852877672865
9.304,-275.7189935733237
9.308,-279.1774797991334
9.312,-274.4570418094577
9.316,-279.0655649696602
9.32,-276.89190602841325
9.324,-260.9228130000833
9.328,-258.8277373150924
9.332,-257.84499633104946
9.336,-260.61181681728635
9.34,-258.885040501563
9.344,-236.98825299997776
9.348,-230.66083060671164
9.352,-233.6643302931462
9.356,-233.58341827366252
9.36,-232.91183719301125
9.364,-209.11891428526985
9.368,-197.17295455308192
9.372,-208.1416988392124
9.376,-199.2098426669424
9.38,-203.21719024240136
9.384,-245.04302412008454
9.388,-262.2431862836111
9.392,-246.21755221060133
9.396,-260.3875677343561
9.4,-253.60176829790063
9.404,-175.98810068728872
9.408,-147.11646937921475
9.412,-169.5122748503319
9.416,-154.5585253783755
9.42,-160.2051891848796
9.424,-179.39941607456382
9.428,-175.09445646524838
9.432,-184.9375623906532
9.436,-173.30364616315558
9.44,-179.36153487465512
9.444,-245.6791361511723
9.448,-266.25496374379145
9.452,-253.73189643099218
9.456,-258.8533753312374
9.46,-258.0758707065008
9.464,-289.4712540414237
9.468,-308.5960312206836
9.472,-290.8807000370435
9.476,-303.95753211496475
9.48,-298.81636178779496
9.484,-285.7499590921092
9.488,-293.9292694528397
9.492,-280.45488850737
9.496,-294.12174558056836
9.5,-287.70100738165263
9.504,-254.90613842570207
9.508,-262.7198337125279
9.512,-241.21766097085023
9.516,-269.7565085104879
9.52,-253.98421577620846
9.524,-63.43119276296259
9.528,-6.535814442126931
9.532,-33.66821124948951
9.536,-35.80967360707763
9.54,-26.79384875463959
9.544,315.49302743309806
9.548,507.5248359327896
9.552,317.6877062469098
9.556,480.19574865327604
9.56,406.0507870811309
9.564,-262.4343361256665
9.568,-461.6266404972104
9.572,-331.91693762519753
9.576,-403.8613117612091
9.58,-380.2817381137914
9.584,-320.2686292061206
9.588,-325.0706452875039
9.592,-315.0258431757305
9.596,-322.14878485986554
9.6,-320.0083519878613
9.604,-341.8951449792744
9.608,-358.35371889929945
9.612,-343.4477890146279
9.616,-353.2916552184438
9.62,-349.92996809440274
9.624,-357.38093704168284
9.628,-370.3444290874989
9.632,-355.7887471189063
9.636,-368.07892423510225
9.64,-362.75438441497005
9.644,-329.2340547821082
9.648,-323.3786267665166
9.652,-325.2992655017362
9.656,-324.951128986679
9.66,-325.02345812716516
9.664,-335.38359389814883
9.668,-343.29197242684813
9.672,-334.67370491061376
9.676,-342.2844622776856
9.68,-338.8223718072219
9.684,-311.3440749565012
9.688,-304.4390246947832
9.692,-308.39606614004725
9.696,-306.26075433894874
9.7,-307.04335565742343
9.704,-316.5728557468378
9.708,-321.47305350517104
9.712,-316.7382895438405
9.716,-320.55387643589404
9.72,-318.9278886965263
9.724,-310.53955642917
9.728,-310.6045573816164
9.732,-308.67082631815344
9.736,-311.4087470769215
9.74,-309.90195340416125
9.744,-291.01466738434397
9.748,-283.4607352829641
9.752,-290.2311780948433
9.756,-284.3116092086273
9.76,-287.1843695998858
9.764,-324.5674184527294
9.768,-340.58819846959494
9.772,-326.6225196770587
9.776,-337.2612462492097
9.78,-332.7936343022552
9.784,-305.8981802610613
9.788,-303.0044829649284
9.792,-300.8990647054394
9.796,-305.82621990616167
9.8,-302.7802404226305
9.804,-259.20613471180866
9.808,-242.58940961935212
9.812,-255.44189007957587
9.816,-246.80245570952954
9.82,-250.1422890392252
9.824,-268.63653449716895
9.828,-272.04376775105845
9.832,-270.6827163661916
9.836,-271.02494193713693
9.84,-271.0006514926846
9.844,-270.38826475842416
9.848,-269.36916824386975
9.852,-270.78314361751046
9.856,-269.31613227313613
9.86,-270.0398087629677
9.864,-275.49154049518216
9.868,-275.60030867707053
9.872,-277.31003240936894
9.876,-274.2264829152251
9.88,-276.1526242920113
9.884,-309.25307362994795
9.888,-323.95464447186555
9.892,-311.30389636341897
9.896,-320.68515772627273
9.9,-316.82244094043267
9.904,-293.1011695661669
9.908,-288.65418466233047
9.912,-290.44522319597786
9.916,-289.7431840052613
9.92,-290.0367832462251
9.924,-302.7714836478339
9.928,-312.13323567344014
9.932,-301.4870246063754
9.936,-311.5666797171982
9.94,-306.7207901025283
9.944,-260.94829973255605
9.948,-248.01768233452273
9.952,-255.41912020763934
9.956,-252.47429551857084
9.96,-252.97409196727637
9.964,-242.79842824472055
9.968,-237.63105294788753
9.972,-241.54099320310917
9.976,-239.38925228102792
9.98,-240.00570707828797
9.984,-237.19638372433937
9.988,-234.76430452230676
9.992,-236.96825139969113
9.996,-235.47251075531227
10.0,-236.01938045686603
10.004,-237.87120915119667
10.008,-238.03106471981292
10.012,-237.95690730565352
10.016,-238.03561539967248
10.02,-238.0030897783206
10.024,-240.73049950102782
10.028,-244.0012261874878
10.032,-239.27579509132823
10.036,-244.82079254428893
10.04,-241.78337757563884
10.044,-198.60509979855954
10.048,-180.62556505112033
10.052,-195.81950707553756
10.056,-184.4714588546456
10.06,-189.23663150120655
10.064,-223.61238646173612
10.068,-232.21683873442782
10.072,-227.30493421890287
10.076,-229.69657368565518
10.08,-228.97522163968594
10.084,-225.0501467979103
10.088,-222.44090608264142
10.092,-226.29760839108633
10.096,-221.36386421538813
10.1,-224.22462107884806
10.104,-272.44661547439915
10.108,-294.75752988736
10.112,-274.8493852852264
10.116,-290.04924096001275
10.12,-283.7101266180773
10.124,-250.51893739219614
10.128,-249.61807897297444
10.132,-244.02736140420947
10.136,-251.67072084175174
10.14,-247.8280857586793
10.144,-242.99698381919237
10.148,-265.87552795163543
10.152,-225.80688776193634
10.156,-276.2181745925538
10.16,-247.91717457410914
10.164,167.0335683737882
10.168,341.15377645155104
10.172,194.68329873651686
10.176,301.8710787498774
10.18,257.94920668710927
10.184,-0.008218047557890129
10.188,-36.07617955036985
10.192,-39.734852015175065
10.196,-14.843090772194696
10.2,-31.20655550858946
10.204,-248.7697894708491
10.208,-320.66082587950916
10.212,-273.9002656047003
10.216,-297.1808091935491
10.22,-290.95886374015623
10.224,-322.38220649479507
10.228,-347.9864732195954
10.232,-324.65644275135674
10.236,-340.7263231096867
10.24,-334.7949892988097
10.244,-321.50356589871905
10.248,-326.5877190797935
10.252,-319.4830766378382
10.256,-324.83786422569597
10.26,-322.97712543176937
10.264,-335.7189941544905
10.268,-350.1219555289282
10.272,-333.48406118220174
10.276,-348.7260302976452
10.28,-341.59290771278006
10.284,-278.1186087094229
10.288,-259.3431513625909
10.292,-272.055556415533
10.296,-264.0223626730214
10.3,-267.16347664264134
10.304,-294.3654730467821
10.308,-305.0876138594489
10.312,-295.4080473080098
10.316,-303.5106487308649
10.32,-299.7783308169625
10.324,-262.43730442713786
10.328,-248.77040518672513
10.332,-260.38270489910633
10.336,-250.74352512442258
10.34,-255.2987020900665
10.344,-312.0857210988607
10.348,-337.10431863460127
10.352,-314.0079759371453
10.356,-333.3091923886165
10.36,-324.48911081376065
10.364,-243.54887938333798
10.368,-219.00092072675758
10.372,-234.93061997014027
10.376,-226.6242614308416
10.38,-229.0336929876877
10.384,-219.7605343910754
10.388,-209.1251908835535
10.392,-220.89667593735876
10.396,-210.47350052982208
10.4,-215.27359376979976
10.404,-257.5113474928524
10.408,-270.33393783533904
10.412,-261.2426224333857
10.416,-267.439161426648
10.42,-264.84917560457035
10.424,-237.95710962245113
10.428,-226.4033271568886
10.432,-237.11522690537112
10.436,-228.16353413945586
10.44,-232.23003501032022
10.444,-266.41581564422245
10.448,-275.2362531728832
10.452,-270.6428483682018
10.456,-272.16674587116677
10.46,-272.01773560205464
10.464,-275.01120622810237
10.468,-273.69247129669856
10.472,-277.75381960185786
10.476,-271.6403237199306
10.48,-275.28559765441565
10.484,-330.08373993135933
10.488,-351.7524843763321
10.492,-335.03435727490375
10.496,-345.63000039904006
10.5,-341.8772132859613
10.504,-336.87994547894925
10.508,-342.86110877295494
10.512,-334.7727012628854
10.516,-342.14515090149865
10.52,-338.83005680610876
10.524,-317.5884321832
10.528,-314.1796783179065
10.532,-314.9335427678293
10.536,-315.12085842356004
10.54,-315.0172082342381
10.544,-324.4307422411906
10.548,-332.4864714200643
10.552,-323.25896403285765
10.556,-331.7363624920764
10.56,-327.7763860548444
10.564,-296.5943644200967
10.568,-289.8577434575232
10.572,-292.4296753507101
10.576,-292.2890741843895
10.58,-291.9800754659364
10.584,-293.8058482348777
10.588,-300.170496684732
10.592,-290.12607721636897
10.596,-301.9556626955756
10.6,-295.5384425021004
10.604,-212.47364220524346
10.608,-180.64491277868174
10.612,-205.95202934768704
10.616,-188.14379208306616
10.62,-195.3636986179756
10.624,-245.67206223101806
10.628,-259.95496755940457
10.632,-249.43524548019417
10.636,-257.3222292711336
10.64,-253.7774873323529
10.644,-215.81888972715686
10.648,-201.53160564704066
10.652,-213.02894026038143
10.656,-204.78595103719175
10.66,-208.17450976133256
10.664,-232.76595162023312
10.668,-240.25697461856208
10.672,-234.20041017129697
10.676,-239.30902322892393
10.68,-236.82824228424263
10.684,-205.72875839412376
10.688,-193.30586930586276
10.692,-203.338705232613
10.696,-196.49243524306198
10.7,-199.10499386362758
10.704,-207.29624017983173
10.708,-205.29637224521227
10.712,-209.25422284766256
10.716,-205.2084282506081
10.72,-207.09481536554486
10.724,-216.03088648447854
10.728,-214.06228818401513
10.732,-219.3060373569895
10.736,-212.59359420882237
10.74,-216.255751950805
10.744,-258.21112782580957
10.748,-271.0664957891477
10.752,-263.77371112066675
10.756,-265.83243867027534
10.76,-266.12537608395183
10.764,-300.54633408601273
10.768,-319.16350102243035
10.772,-302.41436726296337
10.776,-314.5704002815465
10.78,-309.81067818472025
10.784,-298.0508041706895
10.788,-305.0056294521566
10.792,-294.04543240156045
10.796,-304.1066766604712
10.8,-299.87307062014816
10.804,-318.0874277299357
10.808,-358.6461636126335
10.812,-297.6972653303931
10.816,-369.5872726037574
10.82,-329.96476305987517
10.824,237.25930706306082
10.828,479.20317564247745
10.832,269.11575490565247
10.836,430.79279879106565
10.84,361.2054493901916
10.844,-156.21387237028523
10.848,-283.06759496820433
10.852,-217.1803612706723
10.856,-239.65352908346463
10.86,-237.38312303147143
10.864,-347.45234826022954
10.868,-400.49670327273964
10.872,-358.7737844023264
10.876,-384.4776489737454
10.88,-375.7359177509992
10.884,-370.19749472906386
10.888,-384.8601349174097
10.892,-367.15768855355185
10.896,-382.16421498654205
10.9,-375.6657487848367
10.904,-333.9590168462574
10.908,-324.3733592422218
10.912,-330.85092908688324
10.916,-325.2676581581091
10.92,-328.25652265969734
10.924,-381.68125101048963
10.928,-407.88833436563635
10.932,-383.6263278810459
10.936,-402.95389548539583
10.94,-394.5397908632449
10.944,-333.3570792418905
10.948,-318.61980585756993
10.952,-326.77320597449227
10.956,-322.69891045332696
10.96,-324.07671930764906
10.964,-339.02103792949947
10.968,-347.4349756303691
10.972,-338.45887339474706
10.976,-346.60759897501424
10.98,-342.7697015369988
10.984,-310.89027183147414
10.988,-303.6811216854652
10.992,-306.1275319809923
10.996,-307.2396207027794
11.0,-305.84076701252513
11.004,-271.577687291454
11.008,-254.66714263894136
11.012,-270.6396144078955
11.016,-257.1679969229219
11.02,-263.38933581799296
11.024,-323.55553510369947
11.028,-343.6942136295952
11.032,-328.8572547621801
11.036,-338.4975068005911
11.04,-334.83243233799874
11.044,-316.2510236014394
11.048,-312.9116153386782
11.052,-314.76900744024175
11.056,-313.10538865849725
11.06,-314.1038528914083
11.064,-338.34126384396615
11.068,-352.04552903050245
11.072,-338.1953855703551
11.076,-350.223111025883
11.08,-344.66314497018476
11.084,-296.30654287623895
11.088,-282.5193799339908
11.092,-291.2418380792255
11.096,-286.4576151455809
11.1,-288.06767845615656
11.104,-296.4709928218799
11.108,-299.5073923354263
11.112,-296.35938822257697
11.116,-299.49351873111783
11.12,-297.8855183039796
11.124,-278.88779808764815
11.128,-271.8278520304811
11.132,-277.4773708110271
11.136,-273.33966914429715
11.14,-275.10277409312283
11.144,-290.1996160415774
11.148,-295.11009750014557
11.152,-291.5477225017037
11.156,-293.73608050733253
11.16,-292.97668527731634
11.164,-293.1500046712172
11.168,-295.3095164149107
11.172,-292.58577353738616
11.176,-295.0712718005592
11.18,-293.93671041987375
11.184,-286.09745626963854
11.188,-284.3891116714646
11.192,-285.49298653477456
11.196,-284.3846433840641
11.2,-285.07536277126667
11.204,-302.97303651497293
11.208,-313.40703094461
11.212,-302.76621506714287
11.216,-311.9291459110805
11.22,-307.75867648388777
11.224,-277.1685437931015
11.228,-271.58176166963864
11.232,-272.3082476157281
11.236,-274.6649805419016
11.24,-272.83733521266595
11.244,-244.71887866143155
11.248,-234.72106661701883
11.252,-241.78102259148469
11.256,-237.5948690541243
11.26,-239.06361709944582
11.264,-246.67813529146835
11.268,-249.23492492381126
11.272,-246.77680845540215
11.276,-248.89481826711605
11.28,-247.9597844109526
11.284,-248.06141085709118
11.288,-253.92620349120557
11.292,-244.33553570460444
11.296,-255.87804355898817
11.3,-249.50429578974834
11.304,-164.2284556642937
11.308,-130.75507502122727
11.312,-157.71178173973146
11.316,-138.79107160459878
11.32,-146.38101159153422
11.324,-189.65959747304277
11.328,-196.85165313609082
11.332,-195.38448487157683
11.336,-193.64024090525317
11.34,-195.1433354136341
11.344,-221.87236941496735
11.348,-233.54621914158923
11.352,-223.25121826925817
11.356,-231.35471359385613
11.36,-227.7916891791772
11.364,-200.29234823110048
11.368,-193.66905163627527
11.372,-196.78464812790054
11.376,-196.13434639306854
11.38,-195.96556656150923
11.384,-191.21063293479227
11.388,-192.30113401211108
11.392,-187.94413853474788
11.396,-194.97691766491724
11.4,-190.60847519264078
11.404,-116.49248643045443
11.408,-82.76101547244697
11.412,-113.06026748774802
11.416,-89.04206287690644
11.42,-99.62847868288911
11.424,-185.37123088602868
11.428,-209.9274260489192
11.432,-193.70308424485617
11.436,-203.33991058495238
11.44,-199.83256179719993
11.444,-179.4171371124931
11.448,-173.11341352785155
11.452,-178.94297358728943
11.456,-173.14876693113735
11.46,-176.2557271631956
11.464,-223.10713289583148
11.468,-243.90058243905432
11.472,-225.99537509625054
11.476,-238.71510575188609
11.48,-233.81490351537215
11.484,-231.23141364742028
11.488,-247.63058689851363
11.492,-223.7822891478725
11.496,-248.292666330131
11.5,-236.26841380159058
11.504,-156.9920633811913
11.508,-162.38036206946197
11.512,-126.46678884988746
11.516,-184.73998546585713
11.52,-148.78356310227244
11.524,450.18662073993727
11.528,721.5381746171037
11.532,478.3358803221971
11.536,670.0183902976388
11.54,586.0750025875669
11.544,-54.04340635553621
11.548,-216.80820345991657
11.552,-126.44421998663275
11.556,-164.37129072574155
11.56,-156.05544866549312
11.564,-212.85241896173576
11.568,-243.86281809403985
11.572,-222.58785688416822
11.576,-231.0167470279248
11.58,-230.21869578148988
11.584,-291.5110619153263
11.588,-322.6532887527392
11.592,-297.5924515945877
11.596,-312.88936063365145
11.6,-307.87818623359
11.604,-316.2974111779246
11.608,-331.44845370657845
11.612,-315.1629174829501
11.616,-328.14254709438336
11.62,-322.7293655395175
11.624,-295.6078196039787
11.628,-292.6542163971255
11.632,-292.56260537176274
11.636,-293.14975231203715
11.64,-293.03519028968844
11.644,-305.8719908414112
11.648,-314.35542025329187
11.652,-306.36959839082795
11.656,-311.94589770942565
11.66,-309.95265377272835
11.664,-317.87948196552674
11.668,-330.4124919900049
11.672,-314.4147038374822
11.676,-330.5376073501969
11.68,-322.4230080101217
11.684,-234.42348112403263
11.688,-203.0911856620576
11.692,-227.6248705229328
11.696,-210.09281540644662
11.7,-217.42899282664678
11.704,-274.8429584538826
11.708,-292.5471923733241
11.712,-279.43858279040165
11.716,-288.59464875164474
11.72,-284.7729926557193
11.724,-253.69151279274354
11.728,-243.59518837892236
11.732,-251.3645084490873
11.736,-245.81362440095023
11.74,-248.12983704832368
11.744,-263.1385706642432
11.748,-265.296140469198
11.752,-266.0973529481077
11.756,-263.1217276867185
11.76,-265.2047517053744
11.764,-303.76446693328893
11.768,-321.6681440572558
11.772,-305.43839775771943
11.776,-318.3862763619392
11.78,-312.6483146847537
11.784,-265.98804840731276
11.788,-252.5297306233753
11.792,-261.5161167631929
11.796,-256.1151414540039
11.8,-258.09473425566836
11.804,-267.89609342969095
11.808,-269.21097289135923
11.812,-269.49813932087505
11.816,-268.0844950455733
11.82,-269.1066098016438
11.824,-290.485044892438
11.828,-301.6963205679187
11.832,-290.38670898112963
11.836,-300.6218768107792
11.84,-295.64329855844005
11.844,-240.4493464688933
11.848,-219.2092477189217
11.852,-237.1034145459869
11.856,-223.3425579042519
11.86,-229.37046235179483
11.864,-277.88491244457964
11.868,-291.13564295887335
11.872,-283.39380173239834
11.876,-286.64877602159385
11.88,-286.0298789299162
11.884,-297.5973201926689
11.888,-304.09043904585997
11.892,-298.9331068622065
11.896,-301.6526438030134
11.9,-301.03438419819753
11.904,-317.34688427365865
11.908,-329.52405123032275
11.912,-316.538143301084
11.916,-327.9307607272664
11.92,-322.66760730601584
11.924,-279.9243910873309
11.928,-268.77728204031996
11.932,-275.23186799612847
11.936,-272.0443753844433
11.94,-273.0485630770337
11.944,-280.8847989239953
11.948,-285.61893084784447
11.952,-279.9923306514541
11.956,-285.6476603435884
11.96,-282.7997907140317
11.964,-255.54379541297797
11.968,-248.52179196530892
11.972,-251.52596780966724
11.976,-251.83942196444468
11.98,-250.86162233649122
11.984,-222.9015358894304
11.988,-209.60639342013735
11.992,-221.3317924665106
11.996,-212.46414127276782
12.0,-216.21269675856456
12.004,-240.6373002284752
12.008,-245.46600822648483
12.012,-243.93648881270656
12.016,-243.27046934797147
12.02,-244.09917590534843
12.024,-263.2928048337952
12.028,-272.4730651948401
12.032,-264.0798980177459
12.036,-270.76920200123413
12.04,-267.82153045829597
12.044,-246.213164357582
12.048,-241.39904256057164
12.052,-243.36088324345278
12.056,-243.3514069470542
12.06,-242.94465001543298
12.064,-233.09465260715788
12.068,-229.4460992787103
12.072,-231.91424958201512
12.076,-230.65994132057864
12.08,-231.00643075093257
12.084,-230.97332782343378
12.088,-231.40471768590047
12.092,-230.00242585659677
12.096,-232.40578329322912
12.1,-230.842011188121
12.104,-200.641444780494
12.108,-185.23000307923778
12.112,-200.530104503633
12.116,-186.9178844409633
12.12,-193.46744769659662
12.124,-261.6056266278367
12.128,-285.5318078731696
12.132,-267.42182479034994
12.136,-279.2273405758238
12.14,-274.80415100768107
12.144,-261.5007671176277
12.148,-264.7707619240937
12.152,-258.3625693638064
12.156,-264.8327658117318
12.16,-261.84099613874076
12.164,-250.9876180023267
12.168,-255.85280138498496
12.172,-246.7867671987669
12.176,-256.04050364093087
12.18,-251.81843111364395
12.184,-258.69397451144806
12.188,-291.60709869165805
12.192,-238.91581113243643
12.196,-302.88063027038237
12.2,-266.9265571883504
12.204,238.38997947782826
12.208,447.73195209696576
12.212,271.02347622684414
12.216,401.1517264366531
12.22,346.9676438324313
12.224,21.932424534965065
12.228,-29.836897755432688
12.232,-25.167355143162695
12.236,-3.271066234916875
12.24,-19.484726013612853
12.244,-248.652759860023
12.248,-327.2824827374623
12.252,-273.16190942014464
12.256,-303.4547722509789
12.26,-293.66888681062306
12.264,-279.01381452029386
12.268,-284.01688308059965
12.272,-279.6409161140391
12.276,-280.0168571695805
12.28,-281.23524249335196
12.284,-331.3500644776634
12.288,-355.31937231642553
12.292,-335.59027005153735
12.296,-348.37395135438436
12.3,-343.83938108535807
12.304,-340.7782162553413
12.308,-349.0417462083745
12.312,-338.9716541806817
12.316,-347.35009373955154
12.32,-343.82349871421707
12.324,-330.2039817409662
12.328,-331.6906536633868
12.332,-327.6138831403686
12.336,-331.83476258443653
12.34,-329.89753894237015
12.344,-322.64100834780504
12.348,-324.9169803512007
12.352,-320.23677806097817
12.356,-325.52860832172814
12.36,-322.801963120153
12.364,-295.9114209468795
12.368,-287.3763203852687
12.372,-293.66831808405993
12.376,-289.14114959626824
12.38,-291.1469526464793
12.384,-314.57147801923253
12.388,-325.3656479769704
12.392,-314.8148481088734
12.396,-324.2219262475299
12.4,-319.66276969890674
12.404,-270.1977445962728
12.408,-251.21625562773053
12.412,-267.4481530916452
12.416,-254.5409021786669
12.42,-260.4023576603203
12.424,-315.5032535219532
12.428,-334.14624011015496
12.432,-320.08132364289327
12.436,-329.4786273826766
12.44,-325.80977385483686
12.444,-307.7653967737249
12.448,-305.95370563606525
12.452,-305.01004376926187
12.456,-307.2532857910815
12.46,-305.8842235879723
12.464,-288.5327934871193
12.468,-282.1270645607242
12.472,-287.21996571993446
12.476,-283.5513021103312
12.48,-285.0939666363543
12.484,-296.2481330904696
12.488,-299.016459034533
12.492,-297.5738837139828
12.496,-298.03266362105893
12.5,-298.0107763487172
12.504,-299.8053028621398
12.508,-299.7036068472036
12.512,-300.92245292672624
12.516,-298.7070597462873
12.52,-300.14223715287164
12.524,-324.432399699123
12.528,-334.91619894405636
12.532,-326.1210982526016
12.536,-332.3795967357458
12.54,-329.8658324216527
12.544,-316.608040099173
12.548,-314.2011944304521
12.552,-315.6372325241567
12.556,-314.1943649828976
12.56,-315.10575498202724
12.564,-336.34966855085366
12.568,-347.7923810133183
12.572,-336.6578743102951
12.576,-345.86960571730754
12.58,-341.73747166237865
12.584,-310.83907266752965
12.588,-302.9906020389181
12.592,-307.9439554334715
12.596,-304.55533886153245
12.6,-306.147617538286
12.604,-335.01233938816324
12.608,-352.00070872052584
12.612,-333.52522760021577
12.616,-351.03931558220495
12.62,-342.3471582772635
12.624,-251.5309574863134
12.628,-220.50610397499844
12.632,-243.6281796876422
12.636,-228.3628301366215
12.64,-234.3284116480263
12.644,-269.74537814986394
12.648,-278.37983097460074
12.652,-272.63021833135537
12.656,-276.6807198268335
12.66,-274.86220686162403
12.664,-253.7374196214532
12.668,-244.49874141378467
12.672,-253.22711549825434
12.676,-245.56555933323492
12.68,-249.28690632337432
12.684,-291.874879216619
12.688,-309.15566070964263
12.692,-293.9675327321558
12.696,-306.05763655207306
12.7,-300.642149883798
12.704,-257.1231047695369
12.708,-245.67174061740332
12.712,-252.00086932736906
12.716,-249.66459263025388
12.72,-249.95976875936267
12.724,-239.61635863770277
12.728,-234.97956763150677
12.732,-237.95469599888963
12.736,-237.15699316870004
12.74,-236.91438000372446
12.744,-216.68992630986682
12.748,-205.14249492323086
12.752,-216.31992877053003
12.756,-207.2484501813837
12.76,-211.2453486950454
12.764,-236.92550511806283
12.768,-240.51739266241998
12.772,-241.46439018566068
12.776,-237.66831652281022
12.78,-240.24913095933027
12.784,-278.91284831251477
12.788,-293.27780019041035
12.792,-283.0505362741078
12.796,-288.4105216647234
12.8,-287.0236215443413
12.804,-306.03701441406974
12.808,-320.96848090898317
12.812,-305.5224081710658
12.816,-318.08385137087737
12.82,-312.70903640544645
12.824,-290.9533377907595
12.828,-294.9289339439947
12.832,-285.134817532102
12.836,-295.8147847309856
12.84,-290.7327937474098
12.844,-284.94133388801754
12.848,-310.9004088992253
12.852,-266.3410361475362
12.856,-321.30831614192357
12.86,-290.24640814272635
12.864,131.37079052617565
12.868,298.63048467842134
12.872,163.53545537888218
12.876,256.46641646869256
12.88,220.18742327763792
12.884,88.0750437904612
12.888,107.13758542382608
12.892,54.6526406684094
12.896,118.37754630385062
12.9,84.32066161832897
12.904,-272.6393771281907
12.908,-383.3306967119476
12.912,-311.4801070009373
12.916,-348.46695379360864
12.92,-337.78828507531824
12.924,-363.07488586814895
12.928,-392.6134544231502
12.932,-363.89380217756053
12.936,-384.6844950183063
12.94,-376.6247269444873
12.944,-353.2179974571523
12.948,-358.19819305718835
12.952,-348.93870427601183
12.956,-357.6455987617982
12.96,-353.78854436471886
12.964,-337.4878693976622
12.968,-338.68268259828085
12.972,-334.4886101556749
12.976,-338.93619175135376
12.98,-336.8900137262705
12.984,-330.3066073745985
12.988,-333.29044294596
12.992,-328.0168533944755
12.996,-333.43227918214154
13.0,-330.83571456134825
13.004,-315.9473140644078
13.008,-316.3530137963031
13.012,-311.90375746318284
13.016,-318.5443005180812
13.02,-314.650242747012
13.024,-262.2171626892396
13.028,-241.34983592146986
13.032,-258.8512607339376
13.036,-245.64758373398163
13.04,-251.37712827446654
13.044,-296.3302364318188
13.048,-309.31082110045253
13.052,-300.5590655978581
13.056,-305.87075913811947
13.06,-303.8883830837296
13.064,-290.6594882453036
13.068,-285.1599184068809
13.072,-291.43109567145683
13.076,-284.3987811264896
13.08,-288.37719792246116
13.084,-349.6322273698254
13.088,-377.6019232228897
13.092,-351.93675946251307
13.096,-372.7566194161004
13.1,-363.3593056160904
13.104,-286.90895906297544
13.108,-265.3817114993315
13.112,-279.21843767944006
13.116,-271.4507139699407
13.12,-274.1291021980999
13.124,-286.2570111515128
13.128,-289.3762893224661
13.132,-286.6190749691359
13.136,-289.2881738863816
13.14,-287.8776988383833
13.144,-269.8474267740639
13.148,-262.6981228310835
13.152,-268.664495213003
13.156,-264.2024041313529
13.16,-266.1272586928816
13.164,-281.32619279838946
13.168,-285.9892008746073
13.172,-282.5276215047813
13.176,-284.9756580968923
13.18,-283.9267686381647
13.184,-274.0836575658973
13.188,-269.9912642124516
13.192,-274.02950808553186
13.196,-270.1880149699607
13.2,-272.17003464424755
13.204,-297.45975450921725
13.208,-307.9361758287975
13.212,-298.8849675029107
13.216,-305.79280949117884
13.22,-302.80923386606565
13.224,-282.07938723088733
13.228,-277.3291662496613
13.232,-279.65026817591513
13.236,-278.9791909718793
13.24,-278.97404969447183
13.244,-272.818955457845
13.248,-268.85746977553964
13.252,-273.49448154510856
13.256,-268.51680484473997
13.26,-271.2553027372102
13.264,-311.61368458399386
13.268,-329.8342515478067
13.272,-313.279039207429
13.276,-326.4072774257405
13.28,-320.62785842052523
13.284,-282.025721204107
13.288,-275.41924802133593
13.292,-275.95261195927276
13.296,-279.26893507846637
13.3,-276.73855910474083
13.304,-237.97243301811733
13.308,-223.9074469930563
13.312,-233.86842479568162
13.316,-228.39362786196915
13.32,-230.02614953272357
13.324,-222.5992735007718
13.328,-214.5014859848323
13.332,-223.6215773542757
13.336,-215.30476037707257
13.34,-219.29973852481857
13.344,-257.6760423080353
13.348,-270.84305416145463
13.352,-260.41730295009745
13.356,-268.1477411483468
13.36,-264.76154327740454
13.364,-234.76002551247012
13.368,-224.243362141599
13.372,-232.94459811867532
13.376,-226.10556007053705
13.38,-229.23389174354816
13.384,-259.91823654754006
13.388,-270.9947323318677
13.392,-262.15908993647946
13.396,-268.338504462359
13.4,-265.8678711606082
13.404,-256.80967534316414
13.408,-259.11337864757337
13.412,-253.46261798613338
13.416,-260.7745891339414
13.42,-256.62442303567116
13.424,-202.45955858902275
13.428,-181.32173630148355
13.432,-198.53598234727843
13.436,-186.28231302071387
13.44,-191.2945096579135
13.444,-218.25866486718016
13.448,-220.88628014148514
13.452,-223.25251564834218
13.456,-217.87810011764412
13.46,-221.34616047003527
13.464,-273.6066269937162
13.468,-294.6196968906257
13.472,-277.89528168580796
13.476,-288.81040283793254
13.48,-284.8407755511086
13.484,-282.58284368758007
13.488,-291.6431455895924
13.492,-280.0678084364993
13.496,-289.90899488488213
13.5,-285.83225838408185
13.504,-291.70699418040743
13.508,-314.0492302548354
13.512,-282.5533441969836
13.516,-315.373617299986
13.52,-298.7598525833829
13.524,-167.46840089950095
13.528,-153.977919730181
13.532,-132.40312323478713
13.536,-181.72835296470683
13.54,-148.36267785112892
13.544,445.4054974638201
13.548,721.4130947541676
13.552,468.73470099263375
13.556,671.6017720290921
13.56,580.7421936583276
13.564,-119.57536543053392
13.568,-300.6433497753367
13.572,-198.01296926522042
13.576,-241.42152972619186
13.58,-232.18280455074736
13.584,-326.7773994188037
13.588,-383.75723964637467
13.592,-334.5821860599337
13.596,-368.1395282565638
13.6,-355.35672691792104
13.604,-308.6220193520326
13.608,-307.6207514760209
13.612,-303.3311399321027
13.616,-307.58000425144746
13.62,-305.9654233271754
13.624,-313.9438755564675
13.628,-322.86659287065737
13.632,-313.6710238908527
13.636,-320.58851759065624
13.64,-317.87676676379954
13.644,-313.49468318892264
13.648,-317.9077981666711
13.652,-311.82978403784875
13.656,-317.2648863075911
13.66,-314.8576597754843
13.664,-303.6338343265926
13.668,-303.7197028240787
13.672,-301.67571081423404
13.676,-304.12115521671177
13.68,-302.92303836944336
13.684,-296.4647509193966
13.688,-296.25972092021647
13.692,-295.45155343377866
13.696,-296.3996051814856
13.7,-295.98355319160197
13.704,-296.4081474078256
13.708,-297.7262021983237
13.712,-296.5765859541613
13.716,-296.82421695653045
13.72,-297.07726754285534
13.724,-315.43354571427903
13.728,-327.3131810411679
13.732,-314.5986545720773
13.736,-326.1507413804004
13.74,-320.5703362780618
13.744,-267.82850372343023
13.748,-250.3785525775614
13.752,-263.8834202533091
13.756,-253.83464591595813
13.76,-258.3550749630574
13.764,-307.2091652225355
13.768,-328.3138808370179
13.772,-308.3420570356092
13.776,-325.6006867178854
13.78,-317.3610791595622
13.784,-238.63475606956146
13.788,-213.09348691131197
13.792,-231.40250287635496
13.796,-220.0267991063719
13.8,-224.2132544816673
13.804,-239.9963488435632
13.808,-240.44462105181168
13.812,-242.24214091962506
13.816,-239.8471613076573
13.82,-241.0938465858008
13.824,-251.3965059790772
13.828,-253.93721732629356
13.832,-252.49656879494034
13.836,-253.29456289362813
13.84,-252.96840375453323
13.844,-246.8407302469951
13.848,-242.73668623752633
13.852,-247.56355365417244
13.856,-242.69500112309692
13.86,-245.2129602100362
13.864,-272.6811919632665
13.868,-282.0412591887917
13.872,-275.27729574975467
13.876,-279.4119897766224
13.88,-277.92605504768915
13.884,-271.83131955386017
13.888,-270.1241150769422
13.892,-272.391509701063
13.896,-269.1745610436421
13.9,-271.2308103680218
13.904,-308.84609169753276
13.908,-326.8133875074034
13.912,-310.27224261120546
13.916,-323.3778796387757
13.92,-317.61531312895033
13.924,-279.22910511081426
13.928,-271.764829982994
13.932,-274.14832442919476
13.936,-274.8036015184366
13.94,-273.89728794077166
13.944,-261.0659115474816
13.948,-258.13690854012407
13.952,-258.76900509436297
13.956,-259.78659675997164
13.96,-258.90561678793483
13.964,-246.9617629252045
13.968,-244.22933992188848
13.972,-244.49807535851932
13.976,-246.33050562485653
13.98,-244.81484900712874
13.984,-215.0691249957829
13.988,-201.3615456117545
13.992,-213.80543324969017
13.996,-203.77797106182246
14.0,-208.3393231571688
14.004,-248.53197456659402
14.008,-261.8545070483969
14.012,-251.53185347714088
14.016,-258.9194213332865
14.02,-255.78687298180682
14.024,-232.79857538858107
14.028,-226.3885328789341
14.032,-230.78438177650358
14.036,-227.84162005150688
14.04,-229.09891361908802
14.044,-242.84189793524655
14.048,-249.11532493348778
14.052,-243.10898925855395
14.056,-248.10776071692857
14.06,-245.84923237922638
14.064,-232.91383201235735
14.068,-233.13868432890834
14.072,-229.0743521764072
14.076,-235.64044512352285
14.08,-231.58256108063705
14.084,-169.97445281950957
14.088,-143.13876948981107
14.092,-167.18517819718167
14.096,-147.87833956617675
14.1,-156.6503174047514
14.104,-230.95775414602699
14.108,-253.11506883858772
14.112,-238.485531738038
14.116,-246.20406970520315
14.12,-243.97546523308426
14.124,-257.8615829053318
14.128,-271.53284571766073
14.132,-256.5927608155593
14.136,-269.2785423793851
14.14,-263.64754635660785
14.144,-237.00118901353062
14.148,-239.19914656282168
14.152,-230.35383560925789
14.156,-241.13242936810533
14.16,-235.62775403788254
14.164,-213.12776835340154
14.168,-227.44514884311846
14.172,-197.13708785137612
14.176,-236.34432243967504
14.18,-213.88806641029365
14.184,62.23663439726128
14.188,154.21486407793424
14.192,96.63238265260364
14.196,116.92516370844397
14.2,117.20276191202377
14.204,405.69793361296723
14.208,587.0915985686667
14.212,398.58114983782394
14.216,564.9105929182426
14.22,485.93454158146983
14.224,-200.60529232291086
14.228,-398.9175213853035
14.232,-272.0356381240228
14.236,-339.20017821199224
14.24,-318.2588285731245
14.244,-302.4091311181025
14.248,-322.78424095072904
14.252,-301.71686012418473
14.256,-314.9838201349431
14.26,-310.9808868484137
14.264,-341.729801665549
14.268,-367.8961230173573
14.272,-341.42869801878027
14.276,-362.395780855198
14.28,-353.43364957894045
14.284,-303.0523396986436
14.288,-294.5837695658778
14.292,-297.77352000821594
14.296,-296.4142608233704
14.3,-297.11334163142755
14.304,-320.99665371523236
14.308,-335.662241157453
14.312,-320.7289325080504
14.316,-333.2705243386175
14.32,-327.60807422603204
14.324,-289.9551531623264
14.328,-283.1258432589084
14.332,-284.7361607641365
14.336,-286.1968731327709
14.34,-284.8485975302894
14.344,-264.2430306838084
14.348,-256.4984461909872
14.352,-262.8427125644438
14.356,-257.8769889393803
14.36,-260.1978274409973
14.364,-287.0035582741103
14.368,-298.7191156344301
14.372,-287.74338210844326
14.376,-297.0375954758442
14.38,-292.6530828296125
14.384,-251.73338927252814
14.388,-237.82802923367433
14.392,-248.88076848161413
14.396,-240.55760407520077
14.4,-244.2922032579085
14.404,-279.8825440769815
14.408,-293.07998895182527
14.412,-281.9601860209792
14.416,-290.53494702731695
14.42,-286.7183458623664
14.424,-255.53414854602588
14.428,-245.80135702043535
14.432,-253.2402643486363
14.436,-247.67494497517472
14.44,-250.20875894634128
14.444,-277.21325243215597
14.448,-288.28042397547813
14.452,-278.3823159656802
14.456,-286.3384831062252
14.46,-282.7339405416902
14.464,-254.55433565403519
14.468,-247.18073983880515
14.472,-251.4361238733966
14.476,-249.5390241864453
14.48,-250.0043203492165
14.484,-248.49783581527575
14.488,-247.69159568492532
14.492,-247.94672818474712
14.496,-248.3719402424622
14.5,-247.93610164851734
14.504,-236.88921363015214
14.508,-230.98110243041958
14.512,-236.95777669619034
14.516,-231.60941532233994
14.52,-234.21468384651075
14.524,-259.38639763961004
14.528,-267.2556001242058
14.532,-262.1754191519013
14.536,-264.4571514586233
14.54,-264.0448697278934
14.544,-278.34713769222463
14.548,-288.2825931527491
14.552,-277.79661589100425
14.556,-286.98884220204206
14.56,-282.6732229413278
14.564,-248.42171709759094
14.568,-239.82072196169875
14.572,-244.4268641762734
14.576,-242.6876518045364
14.58,-242.99099671674662
14.584,-241.13070749236002
14.588,-241.56924510693986
14.592,-239.6271542806949
14.596,-242.74313234575274
14.6,-240.79190451428093
14.604,-211.4964558519299
14.608,-199.22489819629575
14.612,-209.7645828804169
14.616,-201.76139101565613
14.62,-205.24929093513575
14.624,-230.88037206045107
14.628,-237.60372517212843
14.632,-233.64359070660666
14.636,-235.36442796564958
14.64,-235.02086270014746
14.644,-242.54111635845652
14.648,-247.71175293878204
14.652,-242.4972257460973
14.656,-246.68352715520828
14.66,-244.89482438349924
14.664,-239.3198305868639
14.668,-242.38712458250345
14.672,-236.40132296852698
14.676,-243.60696297858348
14.68,-239.6352475397404
14.684,-195.35145250873288
14.688,-181.0287014854372
14.692,-190.46197946835204
14.696,-185.8363521407683
14.7,-186.9856430086447
14.704,-175.12180168829858
14.708,-166.61469018407104
14.712,-174.75554996869948
14.716,-168.7007926444292
14.72,-171.12929991508764
14.724,-176.99642996752257
14.728,-173.290677935724
14.732,-179.6558420110571
14.736,-172.65808973619423
14.74,-176.31012627569268
14.744,-210.4162154955912
14.748,-218.9765650963097
14.752,-215.62432963563677
14.756,-214.46302034408072
14.76,-216.2894668116929
14.764,-264.1417721864331
14.768,-287.2209968269333
14.772,-266.6947441832075
14.776,-281.8268314787063
14.78,-275.6380813269007
14.784,-252.29918137997396
14.788,-255.16375768418501
14.792,-247.4368724355892
14.796,-255.40679293685525
14.8,-251.8304264831565
14.804,-257.8281469312101
14.808,-280.18499367992615
14.812,-248.00789918151932
14.816,-282.1623702073452
14.82,-264.55431344902587
14.824,-123.06639133559267
14.828,-107.41786317202813
14.832,-85.53262836960853
14.836,-137.79488906866453
14.84,-101.70786513470011
14.844,540.8963528139886
14.848,840.4604968536256
14.852,564.4269145059295
14.856,787.2206751097273
14.86,686.4513813898975
14.864,-84.7320791862959
14.868,-283.59571059354624
14.872,-170.45815408411144
14.876,-218.50200526218552
14.88,-208.20521873247864
14.884,-309.08083510723185
14.888,-369.0903135907728
14.892,-318.1091609823171
14.896,-351.7974805987142
14.9,-339.3926054693099
14.904,-309.4204191531157
14.908,-316.54675036054704
14.912,-305.0751571245258
14.916,-314.7226405051718
14.92,-310.8034200119903
14.924,-303.40923267925865
14.928,-308.1119439886941
14.932,-302.07053628606633
14.936,-306.4651068119386
14.94,-304.98243258414544
14.944,-316.11126264279363
14.948,-326.9337537582975
14.952,-315.33468204262476
14.956,-324.92691589607966
14.96,-320.7197674567446
14.964,-297.51341368142454
14.968,-294.38612607320664
14.972,-294.7939794621922
14.976,-295.096940815852
14.98,-295.04124470688265
14.984,-307.6664352416747
14.988,-317.2230586715
14.992,-306.65655318540877
14.996,-316.15814749456905
15.0,-311.65058598919506
15.004,-276.48339485699535
15.008,-267.7684558665767
15.012,-272.6226725795344
15.016,-270.30352393580614
15.02,-271.05355597971965
15.024,-279.5029898788387
15.028,-285.16376330087525
15.032,-278.3577724195884
15.036,-285.2818710289911
15.04,-281.67322508843205
15.044,-242.66215915071786
15.048,-228.81851368726228
15.052,-239.7495769760133
15.056,-231.86437207307915
15.06,-235.25361732917747
15.064,-262.1882837187142
15.068,-270.6026120330821
15.072,-264.5514725628792
15.076,-268.1903716457646
15.08,-266.9634337592865
15.084,-271.2140038246803
15.088,-278.1183163405703
15.092,-269.16583132737065
15.096,-278.2562595195941
15.1,-273.5946397124178
15.104,-228.8054176643249
15.108,-216.00123100308454
15.112,-223.2500966032104
15.116,-220.964624472804
15.12,-220.8674535124416
15.124,-194.2291216510028
15.128,-179.87197341182906
15.132,-193.0596931965265
15.136,-183.09999571849426
15.14,-187.2586919023772
15.144,-204.5709590366148
15.148,-202.50525474477232
15.152,-209.61695836703424
15.156,-199.91863427843833
15.16,-205.58041898163884
15.164,-281.49417894654346
15.168,-312.812229585736
15.172,-285.34274699964027
15.176,-307.13609367386937
15.18,-297.21028580416225
15.184,-211.6247126097774
15.188,-183.97343507674012
15.192,-204.911896446438
15.196,-190.36964375087297
15.2,-196.42849283446668
15.204,-237.57714916876944
15.208,-248.02881851579693
15.212,-241.78649496302796
15.216,-244.8749204413504
15.22,-243.97259031312456
15.224,-244.39126571902221
15.228,-245.66677223102766
15.232,-244.56417978043544
15.236,-245.09330918069787
15.24,-245.01581941727542
15.244,-248.9058236312239
15.248,-250.99166337566413
15.252,-249.36776747039815
15.256,-250.1432151218509
15.26,-250.02353804067093
15.264,-256.1796578152742
15.268,-259.762067902661
15.272,-256.7719856239412
15.276,-258.331972259669
15.28,-258.05019563955113
15.284,-273.67360338426505
15.288,-285.4563033139987
15.292,-272.21067765041266
15.296,-284.5277606948361
15.3,-278.50130149810735
15.304,-227.25606328345464
15.308,-214.30663750422676
15.312,-220.5312208786024
15.316,-219.63793599922013
15.32,-218.81286869337984
15.324,-189.00329664997838
15.328,-176.02458523475792
15.332,-186.20385783062352
15.336,-179.98530763860978
15.34,-182.06905186636254
15.344,-178.79378756246808
15.348,-172.2586420612633
15.352,-179.67049737138854
15.356,-173.4872528590317
15.36,-176.16699249937122
15.364,-185.54017311678282
15.368,-182.189997959902
15.372,-189.4083647867769
15.376,-180.4763407909983
15.38,-185.4931369823439
15.384,-245.07881593543982
15.388,-266.484856532174
15.392,-250.28490897260616
15.396,-260.62992320234144
15.4,-256.79731546226054
15.404,-245.89875732040915
15.408,-247.3508026262483
15.412,-244.70004655139635
15.416,-246.25125422163393
15.42,-246.10537691462554
15.424,-274.6311266451395
15.428,-294.93164824976844
15.432,-273.3913268223469
15.436,-291.2400480501273
15.44,-283.57347234804297
15.444,-278.8388674780078
15.448,-313.5201914501659
15.452,-255.58502013566638
15.456,-326.6067311859252
15.46,-285.71097995836146
15.464,269.10233363277496
15.468,497.2590810869814
15.472,302.05835889244867
15.476,448.3847010788882
15.48,385.5211531126315
15.484,-9.358282992861039
15.488,-84.16023689330451
15.492,-61.62850639931022
15.496,-51.602641062768555
15.5,-63.575348502215
15.504,-267.50365987306026
15.508,-340.35025389824335
15.512,-289.52297502992735
15.516,-316.98547968677417
15.52,-308.8231423140654
15.524,-334.8530438208943
15.528,-363.46288697927923
15.532,-333.8451662248914
15.536,-357.59946886521243
15.54,-347.28049170968353
15.544,-286.632797647606
15.548,-275.8428684447516
15.552,-279.51250681148304
15.556,-279.5283375325554
15.56,-278.9182734746567
15.564,-269.0106156756669
15.568,-265.1228337650378
15.572,-269.04560431543496
15.576,-264.884310238232
15.58,-267.265368457224
15.584,-303.60078464656584
15.588,-319.82721758323527
15.592,-305.3671033704337
15.596,-316.472595133025
15.6,-311.653137226728
15.604,-281.16520245940035
15.608,-274.964351099794
15.612,-277.69193264420403
15.616,-276.90859887775645
15.62,-277.0020601303585
15.624,-278.9892336238935
15.628,-281.6085037060316
15.632,-277.94797064841725
15.636,-281.9654613180497
15.64,-279.78526626262334
15.644,-253.56779243390775
15.648,-242.96623718221883
15.652,-252.48673975195823
15.656,-244.5036661669236
15.66,-248.34314987011865
15.664,-287.96485004903343
15.668,-302.9191188787643
15.672,-290.26506295990777
15.676,-300.03421567840616
15.68,-295.6489437887639
15.684,-259.4859433635917
15.688,-248.01777472152907
15.692,-256.7572575492211
15.696,-250.53458259291585
15.7,-253.20155836417328
15.704,-272.15318050286385
15.708,-276.38957406654754
15.712,-275.0238340880095
15.716,-273.9159370900312
15.72,-275.2072701675079
15.724,-308.38920179751705
15.728,-325.90560864089827
15.732,-308.49836529621047
15.736,-323.6360207418257
15.74,-316.3781902675783
15.744,-250.16519551835665
15.748,-228.6779193291059
15.752,-244.83488586508736
15.756,-233.66644386215268
15.76,-238.355726126445
15.764,-274.39300038492513
15.768,-286.48310597046054
15.772,-276.30120346241836
15.776,-284.62234767380954
15.78,-280.64161145749875
15.784,-239.4076514935373
15.788,-223.69671442088983
15.792,-237.11534442543044
15.796,-226.67007266242246
15.8,-231.37669971992116
15.804,-268.72176579333984
15.808,-279.22435104324285
15.812,-272.5232119408638
15.816,-276.05708036423954
15.82,-274.9575757084264
15.824,-273.8036921843406
15.828,-274.06302768380385
15.832,-274.46675559027057
15.836,-273.03485203491516
15.84,-274.1553912389391
15.844,-296.6717641397977
15.848,-306.81944558834846
15.852,-298.32310972141494
15.856,-303.931440773731
15.86,-301.9246657350218
15.864,-305.6499725587779
15.868,-313.95836740440205
15.872,-303.48891384606463
15.876,-313.4498519537028
15.88,-308.60516351599085
15.884,-272.8338742703268
15.888,-266.35958982098504
15.892,-267.06406463003526
15.896,-270.18767575262694
15.9,-267.6982440792312
15.904,-230.4944016761218
15.908,-217.32219333201425
15.912,-226.5574377806206
15.916,-221.49686655292777
15.92,-223.04421221176335
15.924,-220.62240038522876
15.928,-217.21758564229594
15.932,-220.30461238258943
15.936,-218.4949687090552
15.94,-218.9927011598313
15.944,-213.10317966033634
15.948,-208.6714250482379
15.952,-213.0933682360637
15.956,-209.59654340387277
15.96,-211.10653488065518
15.964,-219.8516550986711
15.968,-221.63952492914788
15.972,-220.51461615217917
15.976,-221.52953606728167
15.98,-220.91677102200583
15.984,-207.61296325851782
15.988,-199.99375831243896
15.992,-208.13508353907852
15.996,-200.51196936184687
16.0,-204.35577777464673
16.004,-243.50662531200257
16.008,-256.8086433993675
16.012,-246.98554945007643
16.016,-253.0815440928209
16.02,-250.89377297956605
16.024,-247.91337775640227
16.028,-250.99822954904204
16.032,-246.97078979013673
16.036,-250.18477099862181
16.04,-248.96624073970935
16.044,-256.0797343238278
16.048,-265.45448136586555
16.052,-254.26185203353967
16.056,-264.03952073202043
16.06,-259.7587895928251
16.064,-259.75474216816104
16.068,-281.39049822541
16.072,-246.784573414755
16.076,-287.50266076291297
16.08,-264.65933776081863
16.084,4.378519148413032
16.088,96.43651156062107
16.092,33.55289094268
16.096,63.864546418096296
16.1,57.49045756933487
16.104,223.1169612943525
16.108,344.66939589809147
16.112,212.01452031439382
16.116,332.6972003101924
16.12,273.8782496311091
16.124,-242.59160542078703
16.128,-393.4357892988076
16.132,-295.20328408480714
16.136,-348.32195825880405
16.14,-331.27774370645307
16.144,-310.9814493868891
16.148,-323.8189464965034
16.152,-309.81647724775746
16.156,-318.40904986686985
16.16,-316.04408954145373
16.164,-345.6624356347555
16.168,-367.1988500273916
16.172,-346.2804671570114
16.176,-362.10662094528493
16.18,-355.59023410942075
16.184,-330.8104439917694
16.188,-332.3048606652469
16.192,-326.3943716543005
16.196,-333.01333648630225
16.2,-329.7485515087277
16.204,-310.6950962961126
16.208,-309.48548476072455
16.212,-307.1316402554843
16.216,-311.08787163599885
16.22,-308.77090444808397
16.224,-284.43275001304926
16.228,-276.75243430237947
16.232,-282.24493537133054
16.236,-278.61979132661077
16.24,-280.1194585308288
16.244,-292.55780632430077
16.248,-297.1283198681254
16.252,-293.1939454356804
16.256,-296.2975295912476
16.26,-294.88027308843516
16.264,-282.42993439737086
16.268,-277.80080391064314
16.272,-282.13079743971247
16.276,-278.1138076886254
16.28,-280.2167424396628
16.284,-306.3535503720632
16.288,-317.03740207217703
16.292,-307.8570733772822
16.296,-314.73903052829723
16.3,-311.7830549679015
16.304,-294.1805611822909
16.308,-291.28843597852926
16.312,-291.65387212022125
16.316,-292.8573299057892
16.32,-291.86994693825613
16.324,-274.2238374767401
16.328,-265.73604489304506
16.332,-274.20652189946685
16.336,-266.43070490864267
16.34,-270.38774495941334
16.344,-314.7983181230828
16.348,-331.98190783199374
16.352,-317.50628706114423
16.356,-328.3354805814588
16.36,-323.6440229995904
16.364,-293.2390184751447
16.368,-286.9723410615517
16.372,-289.37736063349604
16.376,-289.55603833004216
16.38,-288.88742176207853
16.384,-273.4809942250883
16.388,-266.97946536411655
16.392,-272.28800756669074
16.396,-268.70419170229934
16.4,-270.07384455287263
16.404,-271.999905205891
16.408,-268.8324986419912
16.412,-273.9866326018147
16.416,-268.03883471761304
16.42,-271.34171175885615
16.424,-310.18882016257214
16.428,-324.3296573829714
16.432,-313.39787907609303
16.436,-320.6120343792809
16.44,-317.8279871797393
16.444,-306.8079282904512
16.448,-306.1366854547044
16.452,-305.5982442007925
16.456,-306.16830019725865
16.46,-306.0203853890728
16.464,-312.6972510706131
16.468,-317.7310263705213
16.472,-312.2807085520685
16.476,-317.0603987490606
16.48,-314.81447350528293
16.484,-297.76450286731324
16.488,-293.0406099748304
16.492,-296.585110417844
16.496,-293.5769492635706
16.5,-295.1920252896199
16.504,-322.14768260187645
16.508,-336.244509085062
16.512,-321.8872927211117
16.516,-334.65543329886896
16.52,-328.44612575164615
16.524,-273.58365769634474
16.528,-257.2865326699575
16.532,-268.17684062284115
16.536,-261.9719542036175
16.54,-264.11769898873547
16.544,-271.3480316792336
16.548,-272.30089731128965
16.552,-271.6693816869707
16.556,-272.4359147853273
16.56,-271.9346792851376
16.564,-263.1125310038991
16.568,-258.8912937832465
16.572,-263.0655159321002
16.576,-259.2008021926577
16.58,-261.2128677872932
16.584,-287.78037802281943
16.588,-300.3099914050254
16.592,-287.79011992712884
16.596,-299.15046065497245
16.6,-293.45447480820275
16.604,-234.60084657157506
16.608,-213.4124568208368
16.612,-230.47922249857115
16.616,-218.13680969011332
16.62,-223.40177548866535
16.624,-257.26451194200956
16.628,-264.1878821343915
16.632,-261.92128039110224
16.636,-260.7293346988403
16.64,-262.24387551823224
16.644,-296.71490380039535
16.648,-312.7764116539241
16.652,-298.57139198948
16.656,-309.0567795248045
16.66,-304.71059028985087
16.664,-286.82213379175107
16.668,-287.3659783331717
16.672,-283.7774452646587
16.676,-287.5734996824826
16.68,-285.9408559929145
16.684,-295.24143365641726
16.688,-309.72192963958713
16.692,-290.8204407243264
16.696,-309.5006266135436
16.7,-300.2177254626242
16.704,-239.4275282390051
16.708,-237.40450038912812
16.712,-222.8791760021675
16.716,-248.00107267610397
16.72,-232.20768946074097
16.724,-31.47007799317328
16.728,33.43925659032211
16.732,-4.328887098773565
16.736,3.9919020583940075
16.74,8.566516445574038
16.744,287.80481715137364
16.748,450.10352626896196
16.752,284.90094164518575
16.756,428.50685829642833
16.76,360.006425499789
16.764,-206.23594029124303
16.768,-363.7189979029592
16.772,-265.6540046508839
16.776,-314.84883237194856
16.78,-300.58457878233116
16.784,-319.03374539977693
16.788,-346.47198795313034
16.792,-320.58217130510513
16.796,-337.9141700178583
16.8,-331.7318589244254
16.804,-331.8271019937979
16.808,-344.42738976003386
16.812,-329.76358528793327
16.816,-341.9423290223554
16.82,-336.61187515865686
16.824,-307.5122159998089
16.828,-302.3259555840809
16.832,-305.07037724599945
16.836,-302.8599367426279
16.84,-304.18346528676113
16.844,-329.8034771177554
16.848,-341.72770068103443
16.852,-331.59200619308365
16.856,-338.3308056754269
16.86,-335.896811612032
16.864,-338.00318038092837
16.868,-345.33449880301885
16.872,-336.5954644260549
16.876,-344.05477438142873
16.88,-340.7805972728294
16.884,-330.1612054070947
16.888,-334.4608137863565
16.892,-325.90461787648303
16.896,-335.92335639113895
16.9,-330.4501651226977
16.904,-273.58749804972655
16.908,-255.05198559774308
16.912,-268.42743508356637
16.916,-259.945326460817
16.92,-263.2315256763184
16.924,-282.7336476194208
16.928,-288.7932161430292
16.932,-283.2543872304087
16.936,-288.5142494929403
16.94,-285.69162943656863
16.944,-249.11128997923586
16.948,-233.41406160240138
16.952,-247.73226798140027
16.956,-236.00599597428857
16.96,-241.48171134324096
16.964,-287.13715601612984
16.968,-300.446073791298
16.972,-291.7798933206347
16.976,-296.24933331816726
16.98,-294.9852668280247
16.984,-302.6997224337076
16.988,-310.0847401426024
16.992,-301.828854056844
16.996,-309.27135496460284
17.0,-305.68525212093283
17.004,-277.38766240809184
17.008,-270.60446127608634
17.012,-273.6234513873805
17.016,-273.6209106244079
17.02,-272.83693936337755
17.024,-248.28157514588898
17.028,-235.64005229100354
17.032,-247.89602685338065
17.036,-237.5410587621489
17.04,-242.43326860958243
17.044,-283.0700532560692
17.048,-294.7701282473199
17.052,-287.10078448305404
17.056,-291.3527378352629
17.06,-289.92410613020064
17.064,-285.4941191000146
17.068,-284.45142712638574
17.072,-285.94566441491816
17.076,-283.76893824394915
17.08,-285.17913798176846
17.084,-307.1758688639006
17.088,-316.1090265091812
17.092,-309.0631596885599
17.096,-313.4185887520954
17.1,-311.95277732323746
17.104,-316.2844996565274
17.108,-322.69147675934755
17.112,-315.1267832117767
17.116,-322.0045769371397
17.12,-318.7190021129501
17.124,-294.58717958908477
17.128,-288.9993189768132
17.132,-291.9132873399322
17.136,-290.64248228707277
17.14,-291.0342759562629
17.144,-296.3766091114196
17.148,-299.98477522994415
17.152,-295.9434567592627
17.156,-299.5441582138849
17.16,-297.8726003849397
17.164,-290.13311934930283
17.168,-291.3269642159166
17.172,-287.6437721328875
17.176,-292.4319371102456
17.18,-289.7198799348117
17.184,-261.88146858706676
17.188,-253.81213989741755
17.192,-258.5725744205541
17.196,-256.6462232661785
17.2,-256.97677472667965
17.204,-252.08669251621677
17.208,-250.47572774710613
17.212,-250.72518705107444
17.216,-251.8407144612623
17.22,-250.8590245054802
17.224,-233.64626548997697
17.228,-227.13967185504177
17.232,-231.74832316132907
17.236,-229.42200185126057
17.24,-229.9829591835908
17.244,-222.4586512902478
17.248,-217.46578403479484
17.252,-222.0244344451447
17.256,-218.9562092708122
17.26,-220.03377617971466
17.264,-215.61140011650687
17.268,-209.25125333487514
17.272,-217.2972383246769
17.276,-209.2659188901144
17.28,-213.40185758483616
17.284,-252.23420767085818
17.288,-263.45487840331145
17.292,-256.8883558654598
17.296,-259.12915038625323
17.3,-259.12886240654217
17.304,-282.63830933096426
17.308,-295.1274223106596
17.312,-284.3022266274523
17.316,-291.22110192852415
17.32,-288.97433313041637
17.324,-308.33398763107544
17.328,-328.46599643902294
17.332,-304.826325442846
17.336,-326.3750233682941
17.34,-316.1886031805061
17.344,-265.2101167782677
17.348,-273.3132448283857
17.352,-245.56338935382587
17.356,-285.348929218973
17.36,-261.17765244478824
17.364,54.98034417471134
17.368,172.78323259930508
17.372,83.58381233889685
17.376,137.11515770335973
17.38,119.46965849131058
17.384,182.9497049282286
17.388,271.6578331926362
17.392,162.51397114698975
17.396,268.67186006208
17.4,214.82131077099143
17.404,-281.17174697034073
17.408,-431.4814918385251
17.412,-329.9163671089254
17.416,-387.5665972109312
17.42,-367.9856328894587
17.424,-326.4201746862182
17.428,-333.80171677720006
17.432,-322.65294414541694
17.436,-330.31974436103513
17.44,-328.02666774765095
17.444,-355.0383443793281
17.448,-376.44387553781206
17.452,-354.32763627273624
17.456,-372.44948481390924
17.46,-364.36202097712277
17.464,-316.0535891361507
17.468,-307.5591502023664
17.472,-310.29208542892036
17.476,-310.4463808295197
17.48,-309.94736497589605
17.484,-307.5873863091595
17.488,-309.2140649446126
17.492,-306.4225668594717
17.496,-309.2857920760401
17.5,-307.8846378239739
17.504,-299.74773803378304
17.508,-299.12900534202157
17.512,-298.3634288706297
17.516,-299.6663801182444
17.52,-298.93035738323726
17.524,-292.93826717756116
17.528,-291.31324737463194
17.532,-292.72064630413087
17.536,-291.10196884631614
17.54,-292.1565197013737
17.544,-314.8811426443016
17.548,-327.8144347123972
17.552,-313.94134855155977
17.556,-326.9936728342647
17.56,-320.3256856068388
17.564,-251.52031228702324
17.568,-226.74698115525817
17.572,-246.90844932866094
17.576,-232.03091831919198
17.58,-238.54680623149275
17.584,-285.46875723852304
17.588,-297.8948786565095
17.592,-290.3162583511919
17.596,-293.901501937361
17.6,-293.0093570901552
17.604,-301.8070896344552
17.608,-308.72076946275365
17.612,-301.34164694771255
17.616,-307.79852260105343
17.62,-304.72518443017555
17.624,-280.80275163437324
17.628,-274.6742558244448
17.632,-278.08847023165185
17.636,-276.8161080908407
17.64,-276.9635989765036
17.644,-269.2790735190054
17.648,-264.46240120906697
17.652,-269.58214544980603
17.656,-264.82272618159163
17.66,-267.2483027894549
17.664,-292.8596945130479
17.668,-302.3882438598893
17.672,-294.43512025650443
17.676,-300.4530704514866
17.68,-297.7660011009923
17.684,-276.71135157203196
17.688,-270.118875768149
17.692,-275.2220834951691
17.696,-271.50041786466784
17.7,-273.13887992051707
17.704,-284.4457983080811
17.708,-286.51664888208063
17.712,-286.4991571328903
17.716,-284.8410105259049
17.72,-286.1997421857419
17.724,-311.2472689639695
17.728,-322.2003191510509
17.732,-312.9187825936333
17.736,-319.37924356500565
17.74,-316.8459072158062
17.744,-311.1181856438027
17.748,-314.34142313321314
17.752,-309.01146130700937
17.756,-314.55837515003884
17.76,-311.73582799144634
17.764,-288.69541441298395
17.768,-282.59551298166656
17.772,-286.5781516936164
17.776,-283.8389271959364
17.78,-285.1612720338772
17.784,-307.1269280581706
17.788,-319.6137763054833
17.792,-306.1606462971754
17.796,-318.6344328386746
17.8,-312.4004550484841
17.804,-258.0598260685957
17.808,-243.320467261974
17.812,-251.53661662360338
17.816,-248.8581915136109
17.82,-248.85736592396273
17.824,-224.48370164663265
17.828,-211.57300666818426
17.832,-223.6537195523696
17.836,-213.9498467715077
17.84,-218.3985390502975
17.844,-254.51769868876087
17.848,-266.1210002244924
17.852,-257.02687433160526
17.856,-263.63366667356445
17.86,-260.76533502324713
17.864,-243.110175082184
17.868,-240.65148336551826
17.872,-239.84485819629595
17.876,-242.9078242591682
17.88,-240.7084919992196
17.884,-207.21139398946912
17.888,-193.77728705822682
17.892,-204.831497537181
17.896,-196.96887413768044
17.9,-200.26024309240208
17.904,-221.45945157906348
17.908,-228.00736791912286
17.912,-221.92844416139013
17.916,-228.07113696270895
17.92,-224.56085842157523
17.924,-170.87259346959675
17.928,-144.89785101623147
17.932,-170.64277539961654
17.936,-147.81542636074053
17.94,-159.12238526979746
17.944,-267.5307118594984
17.948,-304.23044072051476
17.952,-276.05271784833866
17.956,-295.20220240569074
17.96,-287.416387387187
17.964,-245.41809845241366
17.968,-237.12104071780877
17.972,-241.8183487227038
17.976,-238.24702611692902
17.98,-240.3133421413708
17.984,-286.34657221138485
17.988,-313.03978380714886
17.992,-285.24392943023116
17.996,-309.163772449383
18.0,-298.12202441584344
18.004,-249.2727969111685
18.008,-262.91749499504004
18.012,-226.08056131850478
18.016,-277.7768442949682
18.02,-246.10180537788895
18.024,190.01253345591638
18.028,366.8325494086044
18.032,217.9957136077295
18.036,325.53097009928314
18.04,280.67366382956476
18.044,69.77922050937484
18.048,59.81057756541938
18.052,30.98322067560291
18.056,78.02219606114205
18.06,49.848138785009304
18.064,-259.73253062365427
18.068,-358.6121263454704
18.072,-291.29982876807065
18.076,-328.3362175570007
18.08,-316.50807926959664
18.084,-315.68670218556133
18.088,-332.5179441283642
18.092,-315.0073976074877
18.096,-327.2110782465873
18.1,-322.8160564117625
18.104,-328.406987233597
18.108,-341.7394759805874
18.112,-326.1738407404206
18.116,-339.7625324765275
18.12,-333.4601870293641
18.124,-291.1281380577855
18.128,-281.44471220471706
18.132,-286.9346225313378
18.136,-283.9833964131061
18.14,-285.0941740124255
18.144,-293.559076262054
18.148,-295.75096679719826
18.152,-295.21705310261854
18.156,-293.9080640449902
18.16,-295.23009344989185
18.164,-326.28856219000573
18.168,-341.5597224684545
18.172,-327.45775512612033
18.176,-338.39849747006457
18.18,-333.6216284849704
18.184,-307.7109216555415
18.188,-304.72426539668976
18.192,-303.70253770103767
18.196,-306.73578023743016
18.2,-304.7745366133671
18.204,-282.97330319228877
18.208,-276.1341314813131
18.212,-280.8364621302194
18.216,-278.0418131488473
18.22,-279.07176384554725
18.224,-284.2402645354936
18.228,-285.5418684626029
18.232,-284.5924120518692
18.236,-285.27156189939546
18.24,-284.9735470984648
18.244,-282.51358992741166
18.248,-281.4335576035027
18.252,-282.7031821291719
18.256,-281.23602666078074
18.26,-282.1118389343965
18.264,-295.0635091571023
18.268,-300.7430880431132
18.272,-295.6577294311823
18.276,-299.6274758304254
18.28,-297.8427871897403
18.284,-284.3815201210478
18.288,-279.97895089554595
18.292,-283.93931401981666
18.296,-280.19796997907315
18.3,-282.24778760624474
18.304,-310.54237498027027
18.308,-323.1964006581668
18.312,-311.4949739502539
18.316,-320.9743457067855
18.32,-316.6106601869539
18.324,-284.8923691133173
18.328,-277.0315402398627
18.332,-281.5091237266638
18.336,-279.4383721563163
18.34,-280.02926670635173
18.344,-282.3688726430868
18.348,-283.99130359055766
18.352,-281.60073679275445
18.356,-284.48390893422993
18.36,-282.7966177944813
18.364,-260.75620321361066
18.368,-251.66277969994647
18.372,-259.7484579729862
18.376,-253.27312550493227
18.38,-256.27879807240697
18.384,-280.09206218363124
18.388,-286.4468153449335
18.392,-282.9873044950947
18.396,-283.81299154092864
18.4,-284.1260963661445
18.404,-304.42881556044705
18.408,-315.8942642116678
18.412,-304.48010474074476
18.416,-314.07926430031296
18.42,-309.5981334546633
18.424,-277.68654564798635
18.428,-270.485337987607
18.432,-273.8758685275608
18.436,-273.0494048958617
18.44,-272.9559779437941
18.444,-268.5474883570427
18.448,-268.1997254741426
18.452,-267.03653937717246
18.456,-269.31201187086185
18.46,-267.8051262290343
18.464,-246.5535115568218
18.468,-237.92559565412515
18.472,-245.50224289978436
18.476,-239.33537650125453
18.48,-242.30955736161397
18.484,-274.11150035784283
18.488,-287.6701200664577
18.492,-274.6997406886669
18.496,-286.0156339636892
18.5,-280.442285420922
18.504,-229.98758135163368
18.508,-214.5252807343917
18.512,-225.00426079570138
18.516,-219.2679193469822
18.52,-221.060787667758
18.524,-217.43662786847014
18.528,-211.74130097537588
18.532,-218.4355914702484
18.536,-212.17930258584497
18.54,-215.32188991240278
18.544,-245.9716391018257
18.548,-257.25843963151766
18.552,-247.42879139058843
18.556,-255.50842980020565
18.56,-251.60231162900556
18.564,-213.51920028309473
18.568,-199.51850892797043
18.572,-211.44369679219318
18.576,-202.01427440449277
18.58,-206.43384828402
18.584,-247.0554912581324
18.588,-261.9287167431932
18.592,-249.01001148789672
18.596,-259.5308171223188
18.6,-254.49566870780205
18.604,-207.1771344423547
18.608,-190.18471032630364
18.612,-204.54181562405847
18.616,-193.18776720070113
18.62,-198.52755973729492
18.624,-247.57954938800347
18.628,-264.8322605518614
18.632,-250.85374613215458
18.636,-260.9616837142762
18.64,-256.65007884545633
18.644,-232.06148429526218
18.648,-227.69955973263097
18.652,-229.41354999499828
18.656,-228.6247398335764
18.66,-229.11838872475596
18.664,-251.03525597150113
18.668,-266.50085710100365
18.672,-249.22236584856526
18.676,-264.5253265934605
18.68,-257.46182498454834
18.684,-239.32125739371014
18.688,-261.1569425160702
18.692,-219.18329736776732
18.696,-273.70922839431984
18.7,-240.89267079491944
18.704,199.52448757822032
18.708,377.5830135793661
