Tue Feb 03 12:12:54 IST 2026
TimeStamp,ECG,PPG
12:12:54,23639.0,357.0,355.0
12:12:54,23536.0,357.0,353.0
12:12:54,23536.0,357.0,353.0
12:12:54,23536.0,357.0,353.0
12:12:54,23536.0,357.0,353.0
12:12:54,23667.0,356.0,355.0
12:12:54,23667.0,356.0,355.0
12:12:54,23667.0,356.0,355.0
12:12:54,23667.0,356.0,355.0
12:12:54,23843.0,357.0,356.0
12:12:54,23843.0,357.0,356.0
12:12:54,23843.0,357.0,356.0
12:12:54,23843.0,357.0,356.0
12:12:54,23714.0,357.0,354.0
12:12:54,23714.0,357.0,354.0
12:12:54,23714.0,357.0,354.0
12:12:54,23714.0,357.0,354.0
12:12:54,23752.0,358.0,356.0
12:12:54,23752.0,358.0,356.0
12:12:54,23752.0,358.0,356.0
12:12:54,23752.0,358.0,356.0
12:12:54,23968.0,357.0,356.0
12:12:54,23968.0,357.0,356.0
12:12:54,23968.0,357.0,356.0
12:12:54,23968.0,357.0,356.0
12:12:54,23896.0,357.0,356.0
12:12:54,23896.0,357.0,356.0
12:12:54,23896.0,357.0,356.0
12:12:54,23896.0,357.0,356.0
12:12:54,23894.0,358.0,358.0
12:12:54,23894.0,358.0,358.0
12:12:54,23894.0,358.0,358.0
12:12:54,23894.0,358.0,358.0
12:12:54,23874.0,358.0,358.0
12:12:54,23874.0,358.0,358.0
12:12:54,23874.0,358.0,358.0
12:12:54,23874.0,358.0,358.0
12:12:54,23792.0,359.0,358.0
12:12:54,23792.0,359.0,358.0
12:12:54,23792.0,359.0,358.0
12:12:54,23792.0,359.0,358.0
12:12:54,23643.0,359.0,358.0
12:12:54,23643.0,359.0,358.0
12:12:54,23643.0,359.0,358.0
12:12:54,23643.0,359.0,358.0
12:12:54,23643.0,360.0,358.0
12:12:54,23643.0,360.0,358.0
12:12:54,23643.0,360.0,358.0
12:12:54,23643.0,360.0,358.0
12:12:54,23681.0,359.0,359.0
12:12:54,23681.0,359.0,359.0
12:12:54,23681.0,359.0,359.0
12:12:54,23681.0,359.0,359.0
12:12:54,23750.0,359.0,358.0
12:12:54,23750.0,359.0,358.0
12:12:54,23750.0,359.0,358.0
12:12:54,23750.0,359.0,358.0
12:12:54,23796.0,358.0,359.0
12:12:54,23796.0,358.0,359.0
12:12:54,23796.0,358.0,359.0
12:12:54,23796.0,358.0,359.0
12:12:54,23637.0,358.0,358.0
12:12:54,23637.0,358.0,358.0
12:12:54,23637.0,358.0,358.0
12:12:54,23637.0,358.0,358.0
12:12:54,23728.0,359.0,359.0
12:12:54,23728.0,359.0,359.0
12:12:54,23728.0,359.0,359.0
12:12:54,23728.0,359.0,359.0
12:12:54,23671.0,359.0,357.0
12:12:54,23671.0,359.0,357.0
12:12:54,23671.0,359.0,357.0
12:12:54,23671.0,359.0,357.0
12:12:54,23750.0,358.0,357.0
12:12:54,23750.0,358.0,357.0
12:12:54,23750.0,358.0,357.0
12:12:54,23750.0,358.0,357.0
12:12:54,23674.0,359.0,358.0
12:12:54,23674.0,359.0,358.0
12:12:54,23674.0,359.0,358.0
12:12:54,23674.0,359.0,358.0
12:12:54,23698.0,359.0,358.0
12:12:54,23698.0,359.0,358.0
12:12:54,23698.0,359.0,358.0
12:12:54,23698.0,359.0,358.0
12:12:54,23710.0,359.0,358.0
12:12:54,23710.0,359.0,358.0
12:12:54,23710.0,359.0,358.0
12:12:54,23710.0,359.0,358.0
12:12:54,23710.0,361.0,359.0
12:12:54,23710.0,361.0,359.0
12:12:54,23710.0,361.0,359.0
12:12:54,23710.0,361.0,359.0
12:12:54,23798.0,359.0,358.0
12:12:54,23798.0,359.0,358.0
12:12:54,23798.0,359.0,358.0
12:12:54,23798.0,359.0,358.0
12:12:54,23665.0,359.0,359.0
12:12:54,23665.0,359.0,359.0
12:12:54,23665.0,359.0,359.0
12:12:54,23665.0,359.0,359.0
12:12:54,23677.0,359.0,359.0
12:12:54,23677.0,359.0,359.0
12:12:54,23677.0,359.0,359.0
12:12:54,23677.0,359.0,359.0
12:12:54,23791.0,359.0,358.0
12:12:54,23791.0,359.0,358.0
12:12:54,23791.0,359.0,358.0
12:12:54,23791.0,359.0,358.0
12:12:54,23816.0,359.0,358.0
12:12:54,23816.0,359.0,358.0
12:12:54,23816.0,359.0,358.0
12:12:54,23816.0,359.0,358.0
12:12:54,23887.0,359.0,356.0
12:12:54,23887.0,359.0,356.0
12:12:54,23887.0,359.0,356.0
12:12:54,23887.0,359.0,356.0
12:12:54,23826.0,358.0,356.0
12:12:54,23826.0,358.0,356.0
12:12:54,23826.0,358.0,356.0
12:12:54,23826.0,358.0,356.0
12:12:54,23743.0,356.0,356.0
12:12:54,23743.0,356.0,356.0
12:12:54,23743.0,356.0,356.0
12:12:54,23743.0,356.0,356.0
12:12:54,23747.0,357.0,354.0
12:12:54,23747.0,357.0,354.0
12:12:54,23747.0,357.0,354.0
12:12:54,23747.0,357.0,354.0
12:12:54,23665.0,355.0,353.0
12:12:54,23665.0,355.0,353.0
12:12:54,23665.0,355.0,353.0
12:12:54,23665.0,355.0,353.0
12:12:54,23572.0,355.0,352.0
12:12:54,23572.0,355.0,352.0
12:12:54,23572.0,355.0,352.0
12:12:54,23572.0,355.0,352.0
12:12:54,23682.0,354.0,351.0
12:12:54,23682.0,354.0,351.0
12:12:54,23682.0,354.0,351.0
12:12:54,23682.0,354.0,351.0
12:12:54,23968.0,354.0,352.0
12:12:54,23968.0,354.0,352.0
12:12:54,23968.0,354.0,352.0
12:12:54,23968.0,354.0,352.0
12:12:54,24066.0,354.0,351.0
12:12:54,24066.0,354.0,351.0
12:12:54,24066.0,354.0,351.0
12:12:54,24066.0,354.0,351.0
12:12:54,23742.0,353.0,349.0
12:12:54,23742.0,353.0,349.0
12:12:54,23742.0,353.0,349.0
12:12:54,23742.0,353.0,349.0
12:12:54,23547.0,353.0,351.0
12:12:54,23547.0,353.0,351.0
12:12:54,23547.0,353.0,351.0
12:12:54,23547.0,353.0,351.0
12:12:54,23582.0,352.0,349.0
12:12:54,23582.0,352.0,349.0
12:12:54,23582.0,352.0,349.0
12:12:54,23582.0,352.0,349.0
12:12:54,23676.0,352.0,349.0
12:12:54,23676.0,352.0,349.0
12:12:54,23676.0,352.0,349.0
12:12:54,23676.0,352.0,349.0
12:12:54,23656.0,352.0,348.0
12:12:54,23656.0,352.0,348.0
12:12:54,23656.0,352.0,348.0
12:12:54,23656.0,352.0,348.0
12:12:54,23659.0,351.0,350.0
12:12:54,23659.0,351.0,350.0
12:12:54,23659.0,351.0,350.0
12:12:54,23659.0,351.0,350.0
12:12:54,23665.0,351.0,349.0
12:12:54,23665.0,351.0,349.0
12:12:54,23665.0,351.0,349.0
12:12:54,23665.0,351.0,349.0
12:12:54,23722.0,352.0,349.0
12:12:54,23722.0,352.0,349.0
12:12:54,23722.0,352.0,349.0
12:12:54,23722.0,352.0,349.0
12:12:54,23855.0,352.0,348.0
12:12:54,23855.0,352.0,348.0
12:12:54,23855.0,352.0,348.0
12:12:54,23855.0,352.0,348.0
12:12:54,23838.0,350.0,348.0
12:12:54,23838.0,350.0,348.0
12:12:54,23838.0,350.0,348.0
12:12:54,23838.0,350.0,348.0
12:12:54,23633.0,351.0,348.0
12:12:54,23633.0,351.0,348.0
12:12:54,23633.0,351.0,348.0
12:12:54,23633.0,351.0,348.0
12:12:55,23804.0,351.0,347.0
12:12:55,23804.0,351.0,347.0
12:12:55,23804.0,351.0,347.0
12:12:55,23804.0,351.0,347.0
12:12:55,23904.0,350.0,347.0
12:12:55,23904.0,350.0,347.0
12:12:55,23904.0,350.0,347.0
12:12:55,23904.0,350.0,347.0
12:12:55,23718.0,350.0,347.0
12:12:55,23718.0,350.0,347.0
12:12:55,23718.0,350.0,347.0
12:12:55,23718.0,350.0,347.0
12:12:55,23762.0,350.0,346.0
12:12:55,23762.0,350.0,346.0
12:12:55,23762.0,350.0,346.0
12:12:55,23762.0,350.0,346.0
12:12:55,23679.0,349.0,345.0
12:12:55,23679.0,349.0,345.0
12:12:55,23679.0,349.0,345.0
12:12:55,23679.0,349.0,345.0
12:12:55,23597.0,348.0,346.0
12:12:55,23597.0,348.0,346.0
12:12:55,23597.0,348.0,346.0
12:12:55,23597.0,348.0,346.0
12:12:55,23644.0,348.0,343.0
12:12:55,23644.0,348.0,343.0
12:12:55,23644.0,348.0,343.0
12:12:55,23644.0,348.0,343.0
12:12:55,23614.0,345.0,344.0
12:12:55,23614.0,345.0,344.0
12:12:55,23614.0,345.0,344.0
12:12:55,23614.0,345.0,344.0
12:12:55,23617.0,348.0,344.0
12:12:55,23617.0,348.0,344.0
12:12:55,23617.0,348.0,344.0
12:12:55,23617.0,348.0,344.0
12:12:55,23699.0,348.0,345.0
12:12:55,23699.0,348.0,345.0
12:12:55,23699.0,348.0,345.0
12:12:55,23699.0,348.0,345.0
12:12:55,23517.0,348.0,344.0
12:12:55,23517.0,348.0,344.0
12:12:55,23517.0,348.0,344.0
12:12:55,23517.0,348.0,344.0
12:12:55,23615.0,348.0,345.0
12:12:55,23615.0,348.0,345.0
12:12:55,23615.0,348.0,345.0
12:12:55,23615.0,348.0,345.0
12:12:55,23697.0,348.0,344.0
12:12:55,23697.0,348.0,344.0
12:12:55,23697.0,348.0,344.0
12:12:55,23697.0,348.0,344.0
12:12:55,23584.0,346.0,344.0
12:12:55,23584.0,346.0,344.0
12:12:55,23584.0,346.0,344.0
12:12:55,23584.0,346.0,344.0
12:12:55,23544.0,347.0,342.0
12:12:55,23544.0,347.0,342.0
12:12:55,23544.0,347.0,342.0
12:12:55,23544.0,347.0,342.0
12:12:55,23637.0,345.0,342.0
12:12:55,23637.0,345.0,342.0
12:12:55,23637.0,345.0,342.0
12:12:55,23637.0,345.0,342.0
12:12:55,23488.0,343.0,339.0
12:12:55,23488.0,343.0,339.0
12:12:55,23488.0,343.0,339.0
12:12:55,23488.0,343.0,339.0
12:12:55,23556.0,342.0,336.0
12:12:55,23556.0,342.0,336.0
12:12:55,23556.0,342.0,336.0
12:12:55,23556.0,342.0,336.0
12:12:55,23533.0,340.0,333.0
12:12:55,23533.0,340.0,333.0
12:12:55,23533.0,340.0,333.0
12:12:55,23533.0,340.0,333.0
12:12:55,23600.0,337.0,330.0
12:12:55,23600.0,337.0,330.0
12:12:55,23600.0,337.0,330.0
12:12:55,23600.0,337.0,330.0
12:12:55,23660.0,334.0,327.0
12:12:55,23660.0,334.0,327.0
12:12:55,23660.0,334.0,327.0
12:12:55,23660.0,334.0,327.0
12:12:55,23570.0,332.0,323.0
12:12:55,23570.0,332.0,323.0
12:12:55,23570.0,332.0,323.0
12:12:55,23570.0,332.0,323.0
12:12:55,23683.0,329.0,320.0
12:12:55,23683.0,329.0,320.0
12:12:55,23683.0,329.0,320.0
12:12:55,23683.0,329.0,320.0
12:12:55,23407.0,325.0,318.0
12:12:55,23407.0,325.0,318.0
12:12:55,23407.0,325.0,318.0
12:12:55,23407.0,325.0,318.0
12:12:55,23483.0,323.0,314.0
12:12:55,23483.0,323.0,314.0
12:12:55,23483.0,323.0,314.0
12:12:55,23483.0,323.0,314.0
12:12:55,23448.0,321.0,311.0
12:12:55,23448.0,321.0,311.0
12:12:55,23448.0,321.0,311.0
12:12:55,23448.0,321.0,311.0
12:12:55,23462.0,317.0,306.0
12:12:55,23462.0,317.0,306.0
12:12:55,23462.0,317.0,306.0
12:12:55,23462.0,317.0,306.0
12:12:55,23695.0,312.0,302.0
12:12:55,23695.0,312.0,302.0
12:12:55,23695.0,312.0,302.0
12:12:55,23695.0,312.0,302.0
12:12:55,23773.0,308.0,295.0
12:12:55,23773.0,308.0,295.0
12:12:55,23773.0,308.0,295.0
12:12:55,23773.0,308.0,295.0
12:12:55,23255.0,304.0,291.0
12:12:55,23255.0,304.0,291.0
12:12:55,23255.0,304.0,291.0
12:12:55,23255.0,304.0,291.0
12:12:55,23450.0,299.0,285.0
12:12:55,23450.0,299.0,285.0
12:12:55,23450.0,299.0,285.0
12:12:55,23450.0,299.0,285.0
12:12:55,23453.0,295.0,277.0
12:12:55,23453.0,295.0,277.0
12:12:55,23453.0,295.0,277.0
12:12:55,23453.0,295.0,277.0
12:12:55,23420.0,290.0,274.0
12:12:55,23420.0,290.0,274.0
12:12:55,23420.0,290.0,274.0
12:12:55,23420.0,290.0,274.0
12:12:55,23420.0,287.0,269.0
12:12:55,23420.0,287.0,269.0
12:12:55,23420.0,287.0,269.0
12:12:55,23420.0,287.0,269.0
12:12:55,23383.0,284.0,266.0
12:12:55,23383.0,284.0,266.0
12:12:55,23383.0,284.0,266.0
12:12:55,23383.0,284.0,266.0
12:12:55,23476.0,281.0,260.0
12:12:55,23476.0,281.0,260.0
12:12:55,23476.0,281.0,260.0
12:12:55,23476.0,281.0,260.0
12:12:55,23517.0,275.0,253.0
12:12:55,23517.0,275.0,253.0
12:12:55,23517.0,275.0,253.0
12:12:55,23517.0,275.0,253.0
12:12:55,23455.0,272.0,252.0
12:12:55,23455.0,272.0,252.0
12:12:55,23455.0,272.0,252.0
12:12:55,23455.0,272.0,252.0
12:12:55,23561.0,269.0,248.0
12:12:55,23561.0,269.0,248.0
12:12:55,23561.0,269.0,248.0
12:12:55,23561.0,269.0,248.0
12:12:55,23603.0,266.0,242.0
12:12:55,23603.0,266.0,242.0
12:12:55,23603.0,266.0,242.0
12:12:55,23603.0,266.0,242.0
12:12:55,23638.0,262.0,240.0
12:12:55,23638.0,262.0,240.0
12:12:55,23638.0,262.0,240.0
12:12:55,23638.0,262.0,240.0
12:12:55,23523.0,261.0,237.0
12:12:55,23523.0,261.0,237.0
12:12:55,23523.0,261.0,237.0
12:12:55,23523.0,261.0,237.0
12:12:55,23423.0,259.0,234.0
12:12:55,23423.0,259.0,234.0
12:12:55,23423.0,259.0,234.0
12:12:55,23423.0,259.0,234.0
12:12:55,23294.0,255.0,231.0
12:12:55,23294.0,255.0,231.0
12:12:55,23294.0,255.0,231.0
12:12:55,23294.0,255.0,231.0
12:12:55,23300.0,253.0,229.0
12:12:55,23300.0,253.0,229.0
12:12:55,23300.0,253.0,229.0
12:12:55,23300.0,253.0,229.0
12:12:55,23340.0,251.0,227.0
12:12:55,23340.0,251.0,227.0
12:12:55,23340.0,251.0,227.0
12:12:55,23340.0,251.0,227.0
12:12:55,23345.0,251.0,227.0
12:12:55,23345.0,251.0,227.0
12:12:55,23345.0,251.0,227.0
12:12:55,23345.0,251.0,227.0
12:12:55,23344.0,250.0,226.0
12:12:55,23344.0,250.0,226.0
12:12:55,23344.0,250.0,226.0
12:12:55,23344.0,250.0,226.0
12:12:55,23412.0,249.0,225.0
12:12:55,23412.0,249.0,225.0
12:12:55,23412.0,249.0,225.0
12:12:55,23412.0,249.0,225.0
12:12:55,23376.0,247.0,226.0
12:12:55,23376.0,247.0,226.0
12:12:55,23376.0,247.0,226.0
12:12:55,23376.0,247.0,226.0
12:12:55,23368.0,247.0,227.0
12:12:56,23368.0,247.0,227.0
12:12:56,23368.0,247.0,227.0
12:12:56,23368.0,247.0,227.0
12:12:56,23269.0,247.0,225.0
12:12:56,23269.0,247.0,225.0
12:12:56,23269.0,247.0,225.0
12:12:56,23269.0,247.0,225.0
12:12:56,23283.0,247.0,226.0
12:12:56,23283.0,247.0,226.0
12:12:56,23283.0,247.0,226.0
12:12:56,23283.0,247.0,226.0
12:12:56,23333.0,245.0,225.0
12:12:56,23333.0,245.0,225.0
12:12:56,23333.0,245.0,225.0
12:12:56,23333.0,245.0,225.0
12:12:56,23157.0,247.0,224.0
12:12:56,23157.0,247.0,224.0
12:12:56,23157.0,247.0,224.0
12:12:56,23157.0,247.0,224.0
12:12:56,23335.0,245.0,225.0
12:12:56,23335.0,245.0,225.0
12:12:56,23335.0,245.0,225.0
12:12:56,23335.0,245.0,225.0
12:12:56,23189.0,245.0,226.0
12:12:56,23189.0,245.0,226.0
12:12:56,23189.0,245.0,226.0
12:12:56,23189.0,245.0,226.0
12:12:56,23201.0,246.0,224.0
12:12:56,23201.0,246.0,224.0
12:12:56,23201.0,246.0,224.0
12:12:56,23201.0,246.0,224.0
12:12:56,23189.0,246.0,225.0
12:12:56,23189.0,246.0,225.0
12:12:56,23189.0,246.0,225.0
12:12:56,23189.0,246.0,225.0
12:12:56,23299.0,246.0,224.0
12:12:56,23299.0,246.0,224.0
12:12:56,23299.0,246.0,224.0
12:12:56,23299.0,246.0,224.0
12:12:56,23325.0,247.0,223.0
12:12:56,23325.0,247.0,223.0
12:12:56,23325.0,247.0,223.0
12:12:56,23325.0,247.0,223.0
12:12:56,23280.0,245.0,223.0
12:12:56,23280.0,245.0,223.0
12:12:56,23280.0,245.0,223.0
12:12:56,23280.0,245.0,223.0
12:12:56,23232.0,245.0,225.0
12:12:56,23232.0,245.0,225.0
12:12:56,23232.0,245.0,225.0
12:12:56,23232.0,245.0,225.0
12:12:56,23181.0,246.0,223.0
12:12:56,23181.0,246.0,223.0
12:12:56,23181.0,246.0,223.0
12:12:56,23181.0,246.0,223.0
12:12:56,23144.0,244.0,225.0
12:12:56,23144.0,244.0,225.0
12:12:56,23144.0,244.0,225.0
12:12:56,23144.0,244.0,225.0
12:12:56,23135.0,246.0,225.0
12:12:56,23135.0,246.0,225.0
12:12:56,23135.0,246.0,225.0
12:12:56,23135.0,246.0,225.0
12:12:56,23065.0,246.0,224.0
12:12:56,23065.0,246.0,224.0
12:12:56,23065.0,246.0,224.0
12:12:56,23065.0,246.0,224.0
12:12:56,23574.0,245.0,225.0
12:12:56,23574.0,245.0,225.0
12:12:56,23574.0,245.0,225.0
12:12:56,23574.0,245.0,225.0
12:12:56,23216.0,246.0,225.0
12:12:56,23216.0,246.0,225.0
12:12:56,23216.0,246.0,225.0
12:12:56,23216.0,246.0,225.0
12:12:56,23037.0,246.0,225.0
12:12:56,23037.0,246.0,225.0
12:12:56,23037.0,246.0,225.0
12:12:56,23037.0,246.0,225.0
12:12:56,23128.0,247.0,224.0
12:12:56,23128.0,247.0,224.0
12:12:56,23128.0,247.0,224.0
12:12:56,23128.0,247.0,224.0
12:12:56,22981.0,244.0,224.0
12:12:56,22981.0,244.0,224.0
12:12:56,22981.0,244.0,224.0
12:12:56,22981.0,244.0,224.0
12:12:56,23111.0,246.0,223.0
12:12:56,23111.0,246.0,223.0
12:12:56,23111.0,246.0,223.0
12:12:56,23111.0,246.0,223.0
12:12:56,23090.0,245.0,224.0
12:12:56,23090.0,245.0,224.0
12:12:56,23090.0,245.0,224.0
12:12:56,23090.0,245.0,224.0
12:12:56,23149.0,246.0,224.0
12:12:56,23149.0,246.0,224.0
12:12:56,23149.0,246.0,224.0
12:12:56,23149.0,246.0,224.0
12:12:56,23127.0,247.0,223.0
12:12:56,23127.0,247.0,223.0
12:12:56,23127.0,247.0,223.0
12:12:56,23127.0,247.0,223.0
12:12:56,23057.0,246.0,224.0
12:12:56,23057.0,246.0,224.0
12:12:56,23057.0,246.0,224.0
12:12:56,23057.0,246.0,224.0
12:12:56,23169.0,246.0,223.0
12:12:56,23169.0,246.0,223.0
12:12:56,23169.0,246.0,223.0
12:12:56,23169.0,246.0,223.0
12:12:56,23217.0,245.0,223.0
12:12:56,23217.0,245.0,223.0
12:12:56,23217.0,245.0,223.0
12:12:56,23217.0,245.0,223.0
12:12:56,23214.0,246.0,223.0
12:12:56,23214.0,246.0,223.0
12:12:56,23214.0,246.0,223.0
12:12:56,23214.0,246.0,223.0
12:12:56,23161.0,245.0,224.0
12:12:56,23161.0,245.0,224.0
12:12:56,23161.0,245.0,224.0
12:12:56,23161.0,245.0,224.0
12:12:56,23276.0,245.0,223.0
12:12:56,23276.0,245.0,223.0
12:12:56,23276.0,245.0,223.0
12:12:56,23276.0,245.0,223.0
12:12:56,22998.0,245.0,223.0
12:12:56,22998.0,245.0,223.0
12:12:56,22998.0,245.0,223.0
12:12:56,22998.0,245.0,223.0
12:12:56,23126.0,246.0,225.0
12:12:56,23126.0,246.0,225.0
12:12:56,23126.0,246.0,225.0
12:12:56,23126.0,246.0,225.0
12:12:56,23105.0,245.0,224.0
12:12:56,23105.0,245.0,224.0
12:12:56,23105.0,245.0,224.0
12:12:56,23105.0,245.0,224.0
12:12:56,23033.0,245.0,224.0
12:12:56,23033.0,245.0,224.0
12:12:56,23033.0,245.0,224.0
12:12:56,23033.0,245.0,224.0
12:12:56,23126.0,245.0,223.0
12:12:56,23126.0,245.0,223.0
12:12:56,23126.0,245.0,223.0
12:12:56,23126.0,245.0,223.0
12:12:56,23080.0,244.0,223.0
12:12:56,23080.0,244.0,223.0
12:12:56,23080.0,244.0,223.0
12:12:56,23080.0,244.0,223.0
12:12:56,22946.0,247.0,224.0
12:12:56,22946.0,247.0,224.0
12:12:56,22946.0,247.0,224.0
12:12:56,22946.0,247.0,224.0
12:12:56,23130.0,246.0,223.0
12:12:56,23130.0,246.0,223.0
12:12:56,23130.0,246.0,223.0
12:12:56,23130.0,246.0,223.0
12:12:56,23078.0,244.0,222.0
12:12:56,23078.0,244.0,222.0
12:12:56,23078.0,244.0,222.0
12:12:56,23078.0,244.0,222.0
12:12:56,23169.0,246.0,223.0
12:12:56,23169.0,246.0,223.0
12:12:56,23169.0,246.0,223.0
12:12:56,23169.0,246.0,223.0
12:12:56,23036.0,245.0,224.0
12:12:56,23036.0,245.0,224.0
12:12:56,23036.0,245.0,224.0
12:12:56,23036.0,245.0,224.0
12:12:56,22968.0,244.0,222.0
12:12:56,22968.0,244.0,222.0
12:12:56,22968.0,244.0,222.0
12:12:56,22968.0,244.0,222.0
12:12:56,23100.0,245.0,223.0
12:12:56,23100.0,245.0,223.0
12:12:56,23100.0,245.0,223.0
12:12:56,23100.0,245.0,223.0
12:12:56,23069.0,244.0,223.0
12:12:56,23069.0,244.0,223.0
12:12:56,23069.0,244.0,223.0
12:12:56,23069.0,244.0,223.0
12:12:56,23170.0,245.0,223.0
12:12:56,23170.0,245.0,223.0
12:12:56,23170.0,245.0,223.0
12:12:56,23170.0,245.0,223.0
12:12:56,23116.0,245.0,224.0
12:12:56,23116.0,245.0,224.0
12:12:56,23116.0,245.0,224.0
12:12:56,23116.0,245.0,224.0
12:12:56,23096.0,244.0,223.0
12:12:56,23096.0,244.0,223.0
12:12:56,23096.0,244.0,223.0
12:12:56,23096.0,244.0,223.0
12:12:56,23153.0,245.0,222.0
12:12:56,23153.0,245.0,222.0
12:12:56,23153.0,245.0,222.0
12:12:56,23153.0,245.0,222.0
12:12:56,23230.0,245.0,224.0
12:12:56,23230.0,245.0,224.0
12:12:57,23230.0,245.0,224.0
12:12:57,23230.0,245.0,224.0
12:12:57,23062.0,245.0,224.0
12:12:57,23062.0,245.0,224.0
12:12:57,23062.0,245.0,224.0
12:12:57,23062.0,245.0,224.0
12:12:57,22936.0,246.0,223.0
12:12:57,22936.0,246.0,223.0
12:12:57,22936.0,246.0,223.0
12:12:57,22936.0,246.0,223.0
12:12:57,23097.0,244.0,223.0
12:12:57,23097.0,244.0,223.0
12:12:57,23097.0,244.0,223.0
12:12:57,23097.0,244.0,223.0
12:12:57,22953.0,244.0,224.0
12:12:57,22953.0,244.0,224.0
12:12:57,22953.0,244.0,224.0
12:12:57,22953.0,244.0,224.0
12:12:57,23010.0,244.0,223.0
12:12:57,23010.0,244.0,223.0
12:12:57,23010.0,244.0,223.0
12:12:57,23010.0,244.0,223.0
12:12:57,23248.0,244.0,223.0
12:12:57,23248.0,244.0,223.0
12:12:57,23248.0,244.0,223.0
12:12:57,23248.0,244.0,223.0
12:12:57,23415.0,245.0,222.0
12:12:57,23415.0,245.0,222.0
12:12:57,23415.0,245.0,222.0
12:12:57,23415.0,245.0,222.0
12:12:57,23028.0,244.0,221.0
12:12:57,23028.0,244.0,221.0
12:12:57,23028.0,244.0,221.0
12:12:57,23028.0,244.0,221.0
12:12:57,23044.0,245.0,222.0
12:12:57,23044.0,245.0,222.0
12:12:57,23044.0,245.0,222.0
12:12:57,23044.0,245.0,222.0
12:12:57,23078.0,245.0,222.0
12:12:57,23078.0,245.0,222.0
12:12:57,23078.0,245.0,222.0
12:12:57,23078.0,245.0,222.0
12:12:57,23095.0,243.0,222.0
12:12:57,23095.0,243.0,222.0
12:12:57,23095.0,243.0,222.0
12:12:57,23095.0,243.0,222.0
12:12:57,23081.0,246.0,224.0
12:12:57,23081.0,246.0,224.0
12:12:57,23081.0,246.0,224.0
12:12:57,23081.0,246.0,224.0
12:12:57,23100.0,245.0,222.0
12:12:57,23100.0,245.0,222.0
12:12:57,23100.0,245.0,222.0
12:12:57,23100.0,245.0,222.0
12:12:57,23152.0,243.0,222.0
12:12:57,23152.0,243.0,222.0
12:12:57,23152.0,243.0,222.0
12:12:57,23152.0,243.0,222.0
12:12:57,23132.0,244.0,222.0
12:12:57,23132.0,244.0,222.0
12:12:57,23132.0,244.0,222.0
12:12:57,23132.0,244.0,222.0
12:12:57,23269.0,245.0,222.0
12:12:57,23269.0,245.0,222.0
12:12:57,23269.0,245.0,222.0
12:12:57,23269.0,245.0,222.0
12:12:57,23229.0,242.0,223.0
12:12:57,23229.0,242.0,223.0
12:12:57,23229.0,242.0,223.0
12:12:57,23229.0,242.0,223.0
12:12:57,23275.0,245.0,223.0
12:12:57,23275.0,245.0,223.0
12:12:57,23275.0,245.0,223.0
12:12:57,23275.0,245.0,223.0
12:12:57,23428.0,246.0,223.0
12:12:57,23428.0,246.0,223.0
12:12:57,23428.0,246.0,223.0
12:12:57,23428.0,246.0,223.0
12:12:57,23310.0,244.0,223.0
12:12:57,23310.0,244.0,223.0
12:12:57,23310.0,244.0,223.0
12:12:57,23310.0,244.0,223.0
12:12:57,23175.0,244.0,222.0
12:12:57,23175.0,244.0,222.0
12:12:57,23175.0,244.0,222.0
12:12:57,23175.0,244.0,222.0
12:12:57,23183.0,244.0,222.0
12:12:57,23183.0,244.0,222.0
12:12:57,23183.0,244.0,222.0
12:12:57,23183.0,244.0,222.0
12:12:57,23242.0,243.0,222.0
12:12:57,23242.0,243.0,222.0
12:12:57,23242.0,243.0,222.0
12:12:57,23242.0,243.0,222.0
12:12:57,23281.0,244.0,222.0
12:12:57,23281.0,244.0,222.0
12:12:57,23281.0,244.0,222.0
12:12:57,23281.0,244.0,222.0
12:12:57,23170.0,243.0,223.0
12:12:57,23170.0,243.0,223.0
12:12:57,23170.0,243.0,223.0
12:12:57,23170.0,243.0,223.0
12:12:57,23285.0,243.0,223.0
12:12:57,23285.0,243.0,223.0
12:12:57,23285.0,243.0,223.0
12:12:57,23285.0,243.0,223.0
12:12:57,23224.0,244.0,222.0
12:12:57,23224.0,244.0,222.0
12:12:57,23224.0,244.0,222.0
12:12:57,23224.0,244.0,222.0
12:12:57,23227.0,243.0,222.0
12:12:57,23227.0,243.0,222.0
12:12:57,23227.0,243.0,222.0
12:12:57,23227.0,243.0,222.0
12:12:57,23351.0,245.0,222.0
12:12:57,23351.0,245.0,222.0
12:12:57,23351.0,245.0,222.0
12:12:57,23351.0,245.0,222.0
12:12:57,23233.0,244.0,221.0
12:12:57,23233.0,244.0,221.0
12:12:57,23233.0,244.0,221.0
12:12:57,23233.0,244.0,221.0
12:12:57,23309.0,243.0,223.0
12:12:57,23309.0,243.0,223.0
12:12:57,23309.0,243.0,223.0
12:12:57,23309.0,243.0,223.0
12:12:57,23266.0,244.0,223.0
12:12:57,23266.0,244.0,223.0
12:12:57,23266.0,244.0,223.0
12:12:57,23266.0,244.0,223.0
12:12:57,23262.0,243.0,222.0
12:12:57,23262.0,243.0,222.0
12:12:57,23262.0,243.0,222.0
12:12:57,23262.0,243.0,222.0
12:12:57,23191.0,244.0,223.0
12:12:57,23191.0,244.0,223.0
12:12:57,23191.0,244.0,223.0
12:12:57,23191.0,244.0,223.0
12:12:57,23367.0,245.0,222.0
12:12:57,23367.0,245.0,222.0
12:12:57,23367.0,245.0,222.0
12:12:57,23367.0,245.0,222.0
12:12:57,23312.0,243.0,222.0
12:12:57,23312.0,243.0,222.0
12:12:57,23312.0,243.0,222.0
12:12:57,23312.0,243.0,222.0
12:12:57,23348.0,244.0,222.0
12:12:57,23348.0,244.0,222.0
12:12:57,23348.0,244.0,222.0
12:12:57,23348.0,244.0,222.0
12:12:57,23380.0,243.0,223.0
12:12:57,23380.0,243.0,223.0
12:12:57,23380.0,243.0,223.0
12:12:57,23380.0,243.0,223.0
12:12:57,23512.0,244.0,222.0
12:12:57,23512.0,244.0,222.0
12:12:57,23512.0,244.0,222.0
12:12:57,23512.0,244.0,222.0
12:12:57,23454.0,245.0,223.0
12:12:57,23454.0,245.0,223.0
12:12:57,23454.0,245.0,223.0
12:12:57,23454.0,245.0,223.0
12:12:57,23315.0,245.0,222.0
12:12:57,23315.0,245.0,222.0
12:12:57,23315.0,245.0,222.0
12:12:57,23315.0,245.0,222.0
12:12:57,23404.0,244.0,223.0
12:12:57,23404.0,244.0,223.0
12:12:57,23404.0,244.0,223.0
12:12:57,23404.0,244.0,223.0
12:12:57,23296.0,245.0,223.0
12:12:57,23296.0,245.0,223.0
12:12:57,23296.0,245.0,223.0
12:12:57,23296.0,245.0,223.0
12:12:57,23363.0,245.0,222.0
12:12:57,23363.0,245.0,222.0
12:12:57,23363.0,245.0,222.0
12:12:57,23363.0,245.0,222.0
12:12:57,23388.0,244.0,223.0
12:12:57,23388.0,244.0,223.0
12:12:57,23388.0,244.0,223.0
12:12:57,23388.0,244.0,223.0
12:12:57,23961.0,244.0,224.0
12:12:57,23961.0,244.0,224.0
12:12:57,23961.0,244.0,224.0
12:12:57,23961.0,244.0,224.0
12:12:57,23398.0,245.0,222.0
12:12:57,23398.0,245.0,222.0
12:12:57,23398.0,245.0,222.0
12:12:57,23398.0,245.0,222.0
12:12:57,23391.0,243.0,222.0
12:12:57,23391.0,243.0,222.0
12:12:57,23391.0,243.0,222.0
12:12:57,23391.0,243.0,222.0
12:12:57,23375.0,245.0,223.0
12:12:57,23375.0,245.0,223.0
12:12:57,23375.0,245.0,223.0
12:12:57,23375.0,245.0,223.0
12:12:57,23426.0,244.0,223.0
12:12:57,23426.0,244.0,223.0
12:12:58,23426.0,244.0,223.0
12:12:58,23426.0,244.0,223.0
12:12:58,23416.0,245.0,223.0
12:12:58,23416.0,245.0,223.0
12:12:58,23416.0,245.0,223.0
12:12:58,23416.0,245.0,223.0
12:12:58,23393.0,244.0,224.0
12:12:58,23393.0,244.0,224.0
12:12:58,23393.0,244.0,224.0
12:12:58,23393.0,244.0,224.0
12:12:58,23544.0,245.0,223.0
12:12:58,23544.0,245.0,223.0
12:12:58,23544.0,245.0,223.0
12:12:58,23544.0,245.0,223.0
12:12:58,23450.0,245.0,222.0
12:12:58,23450.0,245.0,222.0
12:12:58,23450.0,245.0,222.0
12:12:58,23450.0,245.0,222.0
12:12:58,23538.0,244.0,224.0
12:12:58,23538.0,244.0,224.0
12:12:58,23538.0,244.0,224.0
12:12:58,23538.0,244.0,224.0
12:12:58,23651.0,245.0,223.0
12:12:58,23651.0,245.0,223.0
12:12:58,23651.0,245.0,223.0
12:12:58,23651.0,245.0,223.0
12:12:58,23662.0,245.0,223.0
12:12:58,23662.0,245.0,223.0
12:12:58,23662.0,245.0,223.0
12:12:58,23662.0,245.0,223.0
12:12:58,23597.0,246.0,223.0
12:12:58,23597.0,246.0,223.0
12:12:58,23597.0,246.0,223.0
12:12:58,23597.0,246.0,223.0
12:12:58,23728.0,245.0,225.0
12:12:58,23728.0,245.0,225.0
12:12:58,23728.0,245.0,225.0
12:12:58,23728.0,245.0,225.0
12:12:58,23589.0,244.0,223.0
12:12:58,23589.0,244.0,223.0
12:12:58,23589.0,244.0,223.0
12:12:58,23589.0,244.0,223.0
12:12:58,23364.0,246.0,224.0
12:12:58,23364.0,246.0,224.0
12:12:58,23364.0,246.0,224.0
12:12:58,23364.0,246.0,224.0
12:12:58,23565.0,245.0,224.0
12:12:58,23565.0,245.0,224.0
12:12:58,23565.0,245.0,224.0
12:12:58,23565.0,245.0,224.0
12:12:58,23631.0,246.0,223.0
12:12:58,23631.0,246.0,223.0
12:12:58,23631.0,246.0,223.0
12:12:58,23631.0,246.0,223.0
12:12:58,23650.0,245.0,225.0
12:12:58,23650.0,245.0,225.0
12:12:58,23650.0,245.0,225.0
12:12:58,23650.0,245.0,225.0
12:12:58,23514.0,244.0,224.0
12:12:58,23514.0,244.0,224.0
12:12:58,23514.0,244.0,224.0
12:12:58,23514.0,244.0,224.0
12:12:58,23630.0,246.0,223.0
12:12:58,23630.0,246.0,223.0
12:12:58,23630.0,246.0,223.0
12:12:58,23630.0,246.0,223.0
12:12:58,23530.0,245.0,225.0
12:12:58,23530.0,245.0,225.0
12:12:58,23530.0,245.0,225.0
12:12:58,23530.0,245.0,225.0
12:12:58,23635.0,245.0,224.0
12:12:58,23635.0,245.0,224.0
12:12:58,23635.0,245.0,224.0
12:12:58,23635.0,245.0,224.0
12:12:58,23508.0,246.0,223.0
12:12:58,23508.0,246.0,223.0
12:12:58,23508.0,246.0,223.0
12:12:58,23508.0,246.0,223.0
12:12:58,23575.0,244.0,224.0
12:12:58,23575.0,244.0,224.0
12:12:58,23575.0,244.0,224.0
12:12:58,23575.0,244.0,224.0
12:12:58,23673.0,245.0,225.0
12:12:58,23673.0,245.0,225.0
12:12:58,23673.0,245.0,225.0
12:12:58,23673.0,245.0,225.0
12:12:58,23651.0,245.0,223.0
12:12:58,23651.0,245.0,223.0
12:12:58,23651.0,245.0,223.0
12:12:58,23651.0,245.0,223.0
12:12:58,23644.0,245.0,223.0
12:12:58,23644.0,245.0,223.0
12:12:58,23644.0,245.0,223.0
12:12:58,23644.0,245.0,223.0
12:12:58,23662.0,245.0,224.0
12:12:58,23662.0,245.0,224.0
12:12:58,23662.0,245.0,224.0
12:12:58,23662.0,245.0,224.0
12:12:58,23575.0,245.0,223.0
12:12:58,23575.0,245.0,223.0
12:12:58,23575.0,245.0,223.0
12:12:58,23575.0,245.0,223.0
12:12:58,23671.0,245.0,225.0
12:12:58,23671.0,245.0,225.0
12:12:58,23671.0,245.0,225.0
12:12:58,23671.0,245.0,225.0
12:12:58,23815.0,245.0,224.0
12:12:58,23815.0,245.0,224.0
12:12:58,23815.0,245.0,224.0
12:12:58,23815.0,245.0,224.0
12:12:58,23802.0,246.0,223.0
12:12:58,23802.0,246.0,223.0
12:12:58,23802.0,246.0,223.0
12:12:58,23802.0,246.0,223.0
12:12:58,23897.0,244.0,225.0
12:12:58,23897.0,244.0,225.0
12:12:58,23897.0,244.0,225.0
12:12:58,23897.0,244.0,225.0
12:12:58,23641.0,246.0,225.0
12:12:58,23641.0,246.0,225.0
12:12:58,23641.0,246.0,225.0
12:12:58,23641.0,246.0,225.0
12:12:58,23632.0,247.0,223.0
12:12:58,23632.0,247.0,223.0
12:12:58,23632.0,247.0,223.0
12:12:58,23632.0,247.0,223.0
12:12:58,23492.0,245.0,224.0
12:12:58,23492.0,245.0,224.0
12:12:58,23492.0,245.0,224.0
12:12:58,23492.0,245.0,224.0
12:12:58,23687.0,245.0,224.0
12:12:58,23687.0,245.0,224.0
12:12:58,23687.0,245.0,224.0
12:12:58,23687.0,245.0,224.0
12:12:58,23553.0,246.0,223.0
12:12:58,23553.0,246.0,223.0
12:12:58,23553.0,246.0,223.0
12:12:58,23553.0,246.0,223.0
12:12:58,24370.0,245.0,224.0
12:12:58,24370.0,245.0,224.0
12:12:58,24370.0,245.0,224.0
12:12:58,24370.0,245.0,224.0
12:12:58,23715.0,245.0,224.0
12:12:58,23715.0,245.0,224.0
12:12:58,23715.0,245.0,224.0
12:12:58,23715.0,245.0,224.0
12:12:58,23709.0,246.0,223.0
12:12:58,23709.0,246.0,223.0
12:12:58,23709.0,246.0,223.0
12:12:58,23709.0,246.0,223.0
12:12:58,23539.0,247.0,224.0
12:12:58,23539.0,247.0,224.0
12:12:58,23539.0,247.0,224.0
12:12:58,23539.0,247.0,224.0
12:12:58,23674.0,245.0,224.0
12:12:58,23674.0,245.0,224.0
12:12:58,23674.0,245.0,224.0
12:12:58,23674.0,245.0,224.0
12:12:58,23677.0,246.0,224.0
12:12:58,23677.0,246.0,224.0
12:12:58,23677.0,246.0,224.0
12:12:58,23677.0,246.0,224.0
12:12:58,23649.0,245.0,224.0
12:12:58,23649.0,245.0,224.0
12:12:58,23649.0,245.0,224.0
12:12:58,23649.0,245.0,224.0
12:12:58,23728.0,246.0,224.0
12:12:58,23728.0,246.0,224.0
12:12:58,23728.0,246.0,224.0
12:12:58,23728.0,246.0,224.0
12:12:58,23736.0,246.0,223.0
12:12:58,23736.0,246.0,223.0
12:12:58,23736.0,246.0,223.0
12:12:58,23736.0,246.0,223.0
12:12:58,23699.0,247.0,225.0
12:12:58,23699.0,247.0,225.0
12:12:58,23699.0,247.0,225.0
12:12:58,23699.0,247.0,225.0
12:12:58,23945.0,246.0,224.0
12:12:58,23945.0,246.0,224.0
12:12:58,23945.0,246.0,224.0
12:12:58,23945.0,246.0,224.0
12:12:58,23967.0,246.0,223.0
12:12:58,23967.0,246.0,223.0
12:12:58,23967.0,246.0,223.0
12:12:58,23967.0,246.0,223.0
12:12:58,23782.0,245.0,225.0
12:12:58,23782.0,245.0,225.0
12:12:58,23782.0,245.0,225.0
12:12:58,23782.0,245.0,225.0
12:12:58,23944.0,245.0,223.0
12:12:58,23944.0,245.0,223.0
12:12:58,23944.0,245.0,223.0
12:12:58,23944.0,245.0,223.0
12:12:58,23972.0,244.0,224.0
12:12:58,23972.0,244.0,224.0
12:12:58,23972.0,244.0,224.0
12:12:58,23972.0,244.0,224.0
12:12:58,23614.0,245.0,224.0
12:12:58,23614.0,245.0,224.0
12:12:58,23614.0,245.0,224.0
12:12:59,23614.0,245.0,224.0
12:12:59,23691.0,245.0,224.0
12:12:59,23691.0,245.0,224.0
12:12:59,23691.0,245.0,224.0
12:12:59,23691.0,245.0,224.0
12:12:59,23813.0,244.0,224.0
12:12:59,23813.0,244.0,224.0
12:12:59,23813.0,244.0,224.0
12:12:59,23813.0,244.0,224.0
12:12:59,23659.0,245.0,222.0
12:12:59,23659.0,245.0,222.0
12:12:59,23659.0,245.0,222.0
12:12:59,23659.0,245.0,222.0
12:12:59,23598.0,245.0,225.0
12:12:59,23598.0,245.0,225.0
12:12:59,23598.0,245.0,225.0
12:12:59,23598.0,245.0,225.0
12:12:59,23655.0,245.0,224.0
12:12:59,23655.0,245.0,224.0
12:12:59,23655.0,245.0,224.0
12:12:59,23655.0,245.0,224.0
12:12:59,23610.0,246.0,222.0
12:12:59,23610.0,246.0,222.0
12:12:59,23610.0,246.0,222.0
12:12:59,23610.0,246.0,222.0
12:12:59,23562.0,246.0,224.0
12:12:59,23562.0,246.0,224.0
12:12:59,23562.0,246.0,224.0
12:12:59,23562.0,246.0,224.0
12:12:59,23640.0,244.0,224.0
12:12:59,23640.0,244.0,224.0
12:12:59,23640.0,244.0,224.0
12:12:59,23640.0,244.0,224.0
12:12:59,23606.0,246.0,223.0
12:12:59,23606.0,246.0,223.0
12:12:59,23606.0,246.0,223.0
12:12:59,23606.0,246.0,223.0
12:12:59,23619.0,243.0,224.0
12:12:59,23619.0,243.0,224.0
12:12:59,23619.0,243.0,224.0
12:12:59,23619.0,243.0,224.0
12:12:59,23670.0,245.0,224.0
12:12:59,23670.0,245.0,224.0
12:12:59,23670.0,245.0,224.0
12:12:59,23670.0,245.0,224.0
12:12:59,23655.0,246.0,223.0
12:12:59,23655.0,246.0,223.0
12:12:59,23655.0,246.0,223.0
12:12:59,23655.0,246.0,223.0
12:12:59,23618.0,244.0,223.0
12:12:59,23618.0,244.0,223.0
12:12:59,23618.0,244.0,223.0
12:12:59,23618.0,244.0,223.0
12:12:59,23668.0,245.0,224.0
12:12:59,23668.0,245.0,224.0
12:12:59,23668.0,245.0,224.0
12:12:59,23668.0,245.0,224.0
12:12:59,23691.0,245.0,222.0
12:12:59,23691.0,245.0,222.0
12:12:59,23691.0,245.0,222.0
12:12:59,23691.0,245.0,222.0
12:12:59,23690.0,245.0,223.0
12:12:59,23690.0,245.0,223.0
12:12:59,23690.0,245.0,223.0
12:12:59,23690.0,245.0,223.0
12:12:59,23925.0,245.0,224.0
12:12:59,23925.0,245.0,224.0
12:12:59,23925.0,245.0,224.0
12:12:59,23925.0,245.0,224.0
12:12:59,23694.0,245.0,222.0
12:12:59,23694.0,245.0,222.0
12:12:59,23694.0,245.0,222.0
12:12:59,23694.0,245.0,222.0
12:12:59,23694.0,244.0,223.0
12:12:59,23694.0,244.0,223.0
12:12:59,23694.0,244.0,223.0
12:12:59,23694.0,244.0,223.0
12:12:59,23584.0,245.0,223.0
12:12:59,23584.0,245.0,223.0
12:12:59,23584.0,245.0,223.0
12:12:59,23584.0,245.0,223.0
12:12:59,23586.0,244.0,225.0
12:12:59,23586.0,244.0,225.0
12:12:59,23586.0,244.0,225.0
12:12:59,23586.0,244.0,225.0
12:12:59,23463.0,245.0,222.0
12:12:59,23463.0,245.0,222.0
12:12:59,23463.0,245.0,222.0
12:12:59,23463.0,245.0,222.0
12:12:59,23561.0,242.0,223.0
12:12:59,23561.0,242.0,223.0
12:12:59,23561.0,242.0,223.0
12:12:59,23561.0,242.0,223.0
12:12:59,24325.0,244.0,224.0
12:12:59,24325.0,244.0,224.0
12:12:59,24325.0,244.0,224.0
12:12:59,24325.0,244.0,224.0
12:12:59,23460.0,246.0,222.0
12:12:59,23460.0,246.0,222.0
12:12:59,23460.0,246.0,222.0
12:12:59,23460.0,246.0,222.0
12:12:59,23515.0,243.0,223.0
12:12:59,23515.0,243.0,223.0
12:12:59,23515.0,243.0,223.0
12:12:59,23515.0,243.0,223.0
12:12:59,23685.0,243.0,222.0
12:12:59,23685.0,243.0,222.0
12:12:59,23685.0,243.0,222.0
12:12:59,23685.0,243.0,222.0
12:12:59,23543.0,244.0,222.0
12:12:59,23543.0,244.0,222.0
12:12:59,23543.0,244.0,222.0
12:12:59,23543.0,244.0,222.0
12:12:59,23675.0,245.0,222.0
12:12:59,23675.0,245.0,222.0
12:12:59,23675.0,245.0,222.0
12:12:59,23675.0,245.0,222.0
12:12:59,23604.0,244.0,223.0
12:12:59,23604.0,244.0,223.0
12:12:59,23604.0,244.0,223.0
12:12:59,23604.0,244.0,223.0
12:12:59,23609.0,245.0,223.0
12:12:59,23609.0,245.0,223.0
12:12:59,23609.0,245.0,223.0
12:12:59,23609.0,245.0,223.0
12:12:59,23669.0,244.0,223.0
12:12:59,23669.0,244.0,223.0
12:12:59,23669.0,244.0,223.0
12:12:59,23669.0,244.0,223.0
12:12:59,23671.0,245.0,223.0
12:12:59,23671.0,245.0,223.0
12:12:59,23671.0,245.0,223.0
12:12:59,23671.0,245.0,223.0
12:12:59,23667.0,245.0,221.0
12:12:59,23667.0,245.0,221.0
12:12:59,23667.0,245.0,221.0
12:12:59,23667.0,245.0,221.0
12:12:59,23671.0,245.0,223.0
12:12:59,23671.0,245.0,223.0
12:12:59,23671.0,245.0,223.0
12:12:59,23671.0,245.0,223.0
12:12:59,23769.0,244.0,223.0
12:12:59,23769.0,244.0,223.0
12:12:59,23769.0,244.0,223.0
12:12:59,23769.0,244.0,223.0
12:12:59,23780.0,246.0,222.0
12:12:59,23780.0,246.0,222.0
12:12:59,23780.0,246.0,222.0
12:12:59,23780.0,246.0,222.0
12:12:59,23657.0,244.0,223.0
12:12:59,23657.0,244.0,223.0
12:12:59,23657.0,244.0,223.0
12:12:59,23657.0,244.0,223.0
12:12:59,23602.0,243.0,224.0
12:12:59,23602.0,243.0,224.0
12:12:59,23602.0,243.0,224.0
12:12:59,23602.0,243.0,224.0
12:12:59,23366.0,245.0,222.0
12:12:59,23366.0,245.0,222.0
12:12:59,23366.0,245.0,222.0
12:12:59,23366.0,245.0,222.0
12:12:59,23561.0,244.0,223.0
12:12:59,23561.0,244.0,223.0
12:12:59,23561.0,244.0,223.0
12:12:59,23561.0,244.0,223.0
12:12:59,23537.0,244.0,224.0
12:12:59,23537.0,244.0,224.0
12:12:59,23537.0,244.0,224.0
12:12:59,23537.0,244.0,224.0
12:12:59,23408.0,246.0,223.0
12:12:59,23408.0,246.0,223.0
12:12:59,23408.0,246.0,223.0
12:12:59,23408.0,246.0,223.0
12:12:59,23445.0,245.0,225.0
12:12:59,23445.0,245.0,225.0
12:12:59,23445.0,245.0,225.0
12:12:59,23445.0,245.0,225.0
12:12:59,23407.0,244.0,223.0
12:12:59,23407.0,244.0,223.0
12:12:59,23407.0,244.0,223.0
12:12:59,23407.0,244.0,223.0
12:12:59,23489.0,245.0,222.0
12:12:59,23489.0,245.0,222.0
12:12:59,23489.0,245.0,222.0
12:12:59,23489.0,245.0,222.0
12:12:59,23543.0,245.0,223.0
12:12:59,23543.0,245.0,223.0
12:12:59,23543.0,245.0,223.0
12:12:59,23543.0,245.0,223.0
12:12:59,23506.0,244.0,223.0
12:12:59,23506.0,244.0,223.0
12:12:59,23506.0,244.0,223.0
12:12:59,23506.0,244.0,223.0
12:12:59,23333.0,246.0,222.0
12:12:59,23333.0,246.0,222.0
12:12:59,23333.0,246.0,222.0
12:12:59,23333.0,246.0,222.0
12:12:59,23362.0,245.0,224.0
12:12:59,23362.0,245.0,224.0
12:12:59,23362.0,245.0,224.0
12:12:59,23362.0,245.0,224.0
12:13:00,23506.0,245.0,223.0
12:13:00,23506.0,245.0,223.0
12:13:00,23506.0,245.0,223.0
12:13:00,23506.0,245.0,223.0
12:13:00,23519.0,244.0,221.0
12:13:00,23519.0,244.0,221.0
12:13:00,23519.0,244.0,221.0
12:13:00,23519.0,244.0,221.0
12:13:00,23500.0,246.0,223.0
12:13:00,23500.0,246.0,223.0
12:13:00,23500.0,246.0,223.0
12:13:00,23500.0,246.0,223.0
12:13:00,23571.0,245.0,223.0
12:13:00,23571.0,245.0,223.0
12:13:00,23571.0,245.0,223.0
12:13:00,23571.0,245.0,223.0
12:13:00,23531.0,245.0,223.0
12:13:00,23531.0,245.0,223.0
12:13:00,23531.0,245.0,223.0
12:13:00,23531.0,245.0,223.0
12:13:00,23432.0,246.0,224.0
12:13:00,23432.0,246.0,224.0
12:13:00,23432.0,246.0,224.0
12:13:00,23432.0,246.0,224.0
12:13:00,23446.0,244.0,224.0
12:13:00,23446.0,244.0,224.0
12:13:00,23446.0,244.0,224.0
12:13:00,23446.0,244.0,224.0
12:13:00,23419.0,245.0,222.0
12:13:00,23419.0,245.0,222.0
12:13:00,23419.0,245.0,222.0
12:13:00,23419.0,245.0,222.0
12:13:00,23378.0,245.0,224.0
12:13:00,23378.0,245.0,224.0
12:13:00,23378.0,245.0,224.0
12:13:00,23378.0,245.0,224.0
12:13:00,23311.0,245.0,224.0
12:13:00,23311.0,245.0,224.0
12:13:00,23311.0,245.0,224.0
12:13:00,23311.0,245.0,224.0
12:13:00,23292.0,244.0,223.0
12:13:00,23292.0,244.0,223.0
12:13:00,23292.0,244.0,223.0
12:13:00,23292.0,244.0,223.0
12:13:00,23617.0,245.0,223.0
12:13:00,23617.0,245.0,223.0
12:13:00,23617.0,245.0,223.0
12:13:00,23617.0,245.0,223.0
12:13:00,23618.0,245.0,223.0
12:13:00,23618.0,245.0,223.0
12:13:00,23618.0,245.0,223.0
12:13:00,23618.0,245.0,223.0
12:13:00,23343.0,245.0,224.0
12:13:00,23343.0,245.0,224.0
12:13:00,23343.0,245.0,224.0
12:13:00,23343.0,245.0,224.0
12:13:00,23369.0,245.0,225.0
12:13:00,23369.0,245.0,225.0
12:13:00,23369.0,245.0,225.0
12:13:00,23369.0,245.0,225.0
12:13:00,23469.0,244.0,224.0
12:13:00,23469.0,244.0,224.0
12:13:00,23469.0,244.0,224.0
12:13:00,23469.0,244.0,224.0
12:13:00,23362.0,244.0,224.0
12:13:00,23362.0,244.0,224.0
12:13:00,23362.0,244.0,224.0
12:13:00,23362.0,244.0,224.0
12:13:00,23317.0,246.0,223.0
12:13:00,23317.0,246.0,223.0
12:13:00,23317.0,246.0,223.0
12:13:00,23317.0,246.0,223.0
12:13:00,23488.0,245.0,224.0
12:13:00,23488.0,245.0,224.0
12:13:00,23488.0,245.0,224.0
12:13:00,23488.0,245.0,224.0
12:13:00,23458.0,246.0,225.0
12:13:00,23458.0,246.0,225.0
12:13:00,23458.0,246.0,225.0
12:13:00,23458.0,246.0,225.0
12:13:00,23324.0,246.0,223.0
12:13:00,23324.0,246.0,223.0
12:13:00,23324.0,246.0,223.0
12:13:00,23324.0,246.0,223.0
12:13:00,23352.0,244.0,225.0
12:13:00,23352.0,244.0,225.0
12:13:00,23352.0,244.0,225.0
12:13:00,23352.0,244.0,225.0
12:13:00,23464.0,245.0,224.0
12:13:00,23464.0,245.0,224.0
12:13:00,23464.0,245.0,224.0
12:13:00,23464.0,245.0,224.0
12:13:00,23516.0,245.0,224.0
12:13:00,23516.0,245.0,224.0
12:13:00,23516.0,245.0,224.0
12:13:00,23516.0,245.0,224.0
12:13:00,23629.0,246.0,224.0
12:13:00,23629.0,246.0,224.0
12:13:00,23629.0,246.0,224.0
12:13:00,23629.0,246.0,224.0
12:13:00,23429.0,246.0,224.0
12:13:00,23429.0,246.0,224.0
12:13:00,23429.0,246.0,224.0
12:13:00,23429.0,246.0,224.0
12:13:00,23409.0,245.0,223.0
12:13:00,23409.0,245.0,223.0
12:13:00,23409.0,245.0,223.0
12:13:00,23409.0,245.0,223.0
12:13:00,23151.0,246.0,224.0
12:13:00,23151.0,246.0,224.0
12:13:00,23151.0,246.0,224.0
12:13:00,23151.0,246.0,224.0
12:13:00,23247.0,247.0,223.0
12:13:00,23247.0,247.0,223.0
12:13:00,23247.0,247.0,223.0
12:13:00,23247.0,247.0,223.0
12:13:00,23191.0,244.0,223.0
12:13:00,23191.0,244.0,223.0
12:13:00,23191.0,244.0,223.0
12:13:00,23191.0,244.0,223.0
12:13:00,23220.0,246.0,224.0
12:13:00,23220.0,246.0,224.0
12:13:00,23220.0,246.0,224.0
12:13:00,23220.0,246.0,224.0
12:13:00,23355.0,246.0,224.0
12:13:00,23355.0,246.0,224.0
12:13:00,23355.0,246.0,224.0
12:13:00,23355.0,246.0,224.0
12:13:00,23353.0,245.0,224.0
12:13:00,23353.0,245.0,224.0
12:13:00,23353.0,245.0,224.0
12:13:00,23353.0,245.0,224.0
12:13:00,23285.0,245.0,224.0
12:13:00,23285.0,245.0,224.0
12:13:00,23285.0,245.0,224.0
12:13:00,23285.0,245.0,224.0
12:13:00,23241.0,245.0,225.0
12:13:00,23241.0,245.0,225.0
12:13:00,23241.0,245.0,225.0
12:13:00,23241.0,245.0,225.0
12:13:00,23271.0,244.0,225.0
12:13:00,23271.0,244.0,225.0
12:13:00,23271.0,244.0,225.0
12:13:00,23271.0,244.0,225.0
12:13:00,23253.0,246.0,222.0
12:13:00,23253.0,246.0,222.0
12:13:00,23253.0,246.0,222.0
12:13:00,23253.0,246.0,222.0
12:13:00,23207.0,245.0,225.0
12:13:00,23207.0,245.0,225.0
12:13:00,23207.0,245.0,225.0
12:13:00,23207.0,245.0,225.0
12:13:00,23278.0,245.0,224.0
12:13:00,23278.0,245.0,224.0
12:13:00,23278.0,245.0,224.0
12:13:00,23278.0,245.0,224.0
12:13:00,23220.0,245.0,223.0
12:13:00,23220.0,245.0,223.0
12:13:00,23220.0,245.0,223.0
12:13:00,23220.0,245.0,223.0
12:13:00,23285.0,245.0,224.0
12:13:00,23285.0,245.0,224.0
12:13:00,23285.0,245.0,224.0
12:13:00,23285.0,245.0,224.0
12:13:00,23177.0,246.0,224.0
12:13:00,23177.0,246.0,224.0
12:13:00,23177.0,246.0,224.0
12:13:00,23177.0,246.0,224.0
12:13:00,23256.0,245.0,223.0
12:13:00,23256.0,245.0,223.0
12:13:00,23256.0,245.0,223.0
12:13:00,23256.0,245.0,223.0
12:13:00,23282.0,246.0,224.0
12:13:00,23282.0,246.0,224.0
12:13:00,23282.0,246.0,224.0
12:13:00,23282.0,246.0,224.0
12:13:00,23299.0,245.0,224.0
12:13:00,23299.0,245.0,224.0
12:13:00,23299.0,245.0,224.0
12:13:00,23299.0,245.0,224.0
12:13:00,23083.0,245.0,224.0
12:13:00,23083.0,245.0,224.0
12:13:00,23083.0,245.0,224.0
12:13:00,23083.0,245.0,224.0
12:13:00,23151.0,245.0,223.0
12:13:00,23151.0,245.0,223.0
12:13:00,23151.0,245.0,223.0
12:13:00,23151.0,245.0,223.0
12:13:00,23151.0,245.0,223.0
12:13:00,23151.0,245.0,223.0
12:13:00,23151.0,245.0,223.0
12:13:00,23151.0,245.0,223.0
12:13:00,23097.0,246.0,224.0
12:13:00,23097.0,246.0,224.0
12:13:00,23097.0,246.0,224.0
12:13:00,23097.0,246.0,224.0
12:13:00,23434.0,246.0,224.0
12:13:00,23434.0,246.0,224.0
12:13:00,23434.0,246.0,224.0
12:13:00,23434.0,246.0,224.0
12:13:00,23108.0,246.0,224.0
12:13:01,23108.0,246.0,224.0
12:13:01,23108.0,246.0,224.0
12:13:01,23108.0,246.0,224.0
12:13:01,23060.0,246.0,224.0
12:13:01,23060.0,246.0,224.0
12:13:01,23060.0,246.0,224.0
12:13:01,23060.0,246.0,224.0
12:13:01,23096.0,244.0,223.0
12:13:01,23096.0,244.0,223.0
12:13:01,23096.0,244.0,223.0
12:13:01,23096.0,244.0,223.0
12:13:01,23049.0,247.0,224.0
12:13:01,23049.0,247.0,224.0
12:13:01,23049.0,247.0,224.0
12:13:01,23049.0,247.0,224.0
12:13:01,23049.0,245.0,225.0
12:13:01,23049.0,245.0,225.0
12:13:01,23049.0,245.0,225.0
12:13:01,23049.0,245.0,225.0
12:13:01,23139.0,245.0,224.0
12:13:01,23139.0,245.0,224.0
12:13:01,23139.0,245.0,224.0
12:13:01,23139.0,245.0,224.0
12:13:01,23125.0,247.0,224.0
12:13:01,23125.0,247.0,224.0
12:13:01,23125.0,247.0,224.0
12:13:01,23125.0,247.0,224.0
12:13:01,23219.0,245.0,225.0
12:13:01,23219.0,245.0,225.0
12:13:01,23219.0,245.0,225.0
12:13:01,23219.0,245.0,225.0
12:13:01,23274.0,245.0,224.0
12:13:01,23274.0,245.0,224.0
12:13:01,23274.0,245.0,224.0
12:13:01,23274.0,245.0,224.0
12:13:01,23150.0,245.0,223.0
12:13:01,23150.0,245.0,223.0
12:13:01,23150.0,245.0,223.0
12:13:01,23150.0,245.0,223.0
12:13:01,23144.0,245.0,224.0
12:13:01,23144.0,245.0,224.0
12:13:01,23144.0,245.0,224.0
12:13:01,23144.0,245.0,224.0
12:13:01,23295.0,246.0,223.0
12:13:01,23295.0,246.0,223.0
12:13:01,23295.0,246.0,223.0
12:13:01,23295.0,246.0,223.0
12:13:01,23281.0,245.0,224.0
12:13:01,23281.0,245.0,224.0
12:13:01,23281.0,245.0,224.0
12:13:01,23281.0,245.0,224.0
12:13:01,23247.0,245.0,224.0
12:13:01,23247.0,245.0,224.0
12:13:01,23247.0,245.0,224.0
12:13:01,23247.0,245.0,224.0
12:13:01,23309.0,246.0,222.0
12:13:01,23309.0,246.0,222.0
12:13:01,23309.0,246.0,222.0
12:13:01,23309.0,246.0,222.0
12:13:01,23161.0,244.0,224.0
12:13:01,23161.0,244.0,224.0
12:13:01,23161.0,244.0,224.0
12:13:01,23161.0,244.0,224.0
12:13:01,23029.0,245.0,224.0
12:13:01,23029.0,245.0,224.0
12:13:01,23029.0,245.0,224.0
12:13:01,23029.0,245.0,224.0
12:13:01,23041.0,245.0,223.0
12:13:01,23041.0,245.0,223.0
12:13:01,23041.0,245.0,223.0
12:13:01,23041.0,245.0,223.0
12:13:01,23075.0,246.0,224.0
12:13:01,23075.0,246.0,224.0
12:13:01,23075.0,246.0,224.0
12:13:01,23075.0,246.0,224.0
12:13:01,23175.0,246.0,222.0
12:13:01,23175.0,246.0,222.0
12:13:01,23175.0,246.0,222.0
12:13:01,23175.0,246.0,222.0
12:13:01,23052.0,245.0,223.0
12:13:01,23052.0,245.0,223.0
12:13:01,23052.0,245.0,223.0
12:13:01,23052.0,245.0,223.0
12:13:01,23218.0,245.0,223.0
12:13:01,23218.0,245.0,223.0
12:13:01,23218.0,245.0,223.0
12:13:01,23218.0,245.0,223.0
12:13:01,23114.0,245.0,224.0
12:13:01,23114.0,245.0,224.0
12:13:01,23114.0,245.0,224.0
12:13:01,23114.0,245.0,224.0
12:13:01,23060.0,245.0,223.0
12:13:01,23060.0,245.0,223.0
12:13:01,23060.0,245.0,223.0
12:13:01,23060.0,245.0,223.0
12:13:01,23129.0,246.0,223.0
12:13:01,23129.0,246.0,223.0
12:13:01,23129.0,246.0,223.0
12:13:01,23129.0,246.0,223.0
12:13:01,23099.0,245.0,223.0
12:13:01,23099.0,245.0,223.0
12:13:01,23099.0,245.0,223.0
12:13:01,23099.0,245.0,223.0
12:13:01,23027.0,244.0,224.0
12:13:01,23027.0,244.0,224.0
12:13:01,23027.0,244.0,224.0
12:13:01,23027.0,244.0,224.0
12:13:01,23102.0,244.0,223.0
12:13:01,23102.0,244.0,223.0
12:13:01,23102.0,244.0,223.0
12:13:01,23102.0,244.0,223.0
12:13:01,23222.0,245.0,222.0
12:13:01,23222.0,245.0,222.0
12:13:01,23222.0,245.0,222.0
12:13:01,23222.0,245.0,222.0
12:13:01,23146.0,244.0,223.0
12:13:01,23146.0,244.0,223.0
12:13:01,23146.0,244.0,223.0
12:13:01,23146.0,244.0,223.0
12:13:01,23219.0,245.0,222.0
12:13:01,23219.0,245.0,222.0
12:13:01,23219.0,245.0,222.0
12:13:01,23219.0,245.0,222.0
12:13:01,23242.0,245.0,223.0
12:13:01,23242.0,245.0,223.0
12:13:01,23242.0,245.0,223.0
12:13:01,23242.0,245.0,223.0
12:13:01,22993.0,244.0,223.0
12:13:01,22993.0,244.0,223.0
12:13:01,22993.0,244.0,223.0
12:13:01,22993.0,244.0,223.0
12:13:01,23108.0,245.0,222.0
12:13:01,23108.0,245.0,222.0
12:13:01,23108.0,245.0,222.0
12:13:01,23108.0,245.0,222.0
12:13:01,22996.0,245.0,225.0
12:13:01,22996.0,245.0,225.0
12:13:01,22996.0,245.0,225.0
12:13:01,22996.0,245.0,225.0
12:13:01,23081.0,245.0,224.0
12:13:01,23081.0,245.0,224.0
12:13:01,23081.0,245.0,224.0
12:13:01,23081.0,245.0,224.0
12:13:01,23117.0,247.0,222.0
12:13:01,23117.0,247.0,222.0
12:13:01,23117.0,247.0,222.0
12:13:01,23117.0,247.0,222.0
12:13:01,23652.0,244.0,224.0
12:13:01,23652.0,244.0,224.0
12:13:01,23652.0,244.0,224.0
12:13:01,23652.0,244.0,224.0
12:13:01,22925.0,245.0,225.0
12:13:01,22925.0,245.0,225.0
12:13:01,22925.0,245.0,225.0
12:13:01,22925.0,245.0,225.0
12:13:01,23065.0,245.0,222.0
12:13:01,23065.0,245.0,222.0
12:13:01,23065.0,245.0,222.0
12:13:01,23065.0,245.0,222.0
12:13:01,23101.0,244.0,223.0
12:13:01,23101.0,244.0,223.0
12:13:01,23101.0,244.0,223.0
12:13:01,23101.0,244.0,223.0
12:13:01,23149.0,245.0,223.0
12:13:01,23149.0,245.0,223.0
12:13:01,23149.0,245.0,223.0
12:13:01,23149.0,245.0,223.0
12:13:01,23143.0,245.0,222.0
12:13:01,23143.0,245.0,222.0
12:13:01,23143.0,245.0,222.0
12:13:01,23143.0,245.0,222.0
12:13:01,23137.0,244.0,223.0
12:13:01,23137.0,244.0,223.0
12:13:01,23137.0,244.0,223.0
12:13:01,23137.0,244.0,223.0
12:13:01,23232.0,245.0,223.0
12:13:01,23232.0,245.0,223.0
12:13:01,23232.0,245.0,223.0
12:13:01,23232.0,245.0,223.0
12:13:01,23097.0,246.0,222.0
12:13:01,23097.0,246.0,222.0
12:13:01,23097.0,246.0,222.0
12:13:01,23097.0,246.0,222.0
12:13:01,23279.0,244.0,224.0
12:13:01,23279.0,244.0,224.0
12:13:01,23279.0,244.0,224.0
12:13:01,23279.0,244.0,224.0
12:13:01,23328.0,245.0,223.0
12:13:01,23328.0,245.0,223.0
12:13:01,23328.0,245.0,223.0
12:13:01,23328.0,245.0,223.0
12:13:01,23394.0,244.0,222.0
12:13:01,23394.0,244.0,222.0
12:13:01,23394.0,244.0,222.0
12:13:01,23394.0,244.0,222.0
12:13:01,23354.0,244.0,223.0
12:13:01,23354.0,244.0,223.0
12:13:01,23354.0,244.0,223.0
12:13:01,23354.0,244.0,223.0
12:13:01,23335.0,244.0,224.0
12:13:01,23335.0,244.0,224.0
12:13:02,23335.0,244.0,224.0
12:13:02,23335.0,244.0,224.0
12:13:02,23329.0,245.0,222.0
12:13:02,23329.0,245.0,222.0
12:13:02,23329.0,245.0,222.0
12:13:02,23329.0,245.0,222.0
12:13:02,23243.0,244.0,223.0
12:13:02,23243.0,244.0,223.0
12:13:02,23243.0,244.0,223.0
12:13:02,23243.0,244.0,223.0
12:13:02,23118.0,245.0,223.0
12:13:02,23118.0,245.0,223.0
12:13:02,23118.0,245.0,223.0
12:13:02,23118.0,245.0,223.0
12:13:02,23281.0,244.0,224.0
12:13:02,23281.0,244.0,224.0
12:13:02,23281.0,244.0,224.0
12:13:02,23281.0,244.0,224.0
12:13:02,23079.0,245.0,223.0
12:13:02,23079.0,245.0,223.0
12:13:02,23079.0,245.0,223.0
12:13:02,23079.0,245.0,223.0
12:13:02,23205.0,245.0,224.0
12:13:02,23205.0,245.0,224.0
12:13:02,23205.0,245.0,224.0
12:13:02,23205.0,245.0,224.0
12:13:02,23320.0,245.0,224.0
12:13:02,23320.0,245.0,224.0
12:13:02,23320.0,245.0,224.0
12:13:02,23320.0,245.0,224.0
12:13:02,23326.0,245.0,222.0
12:13:02,23326.0,245.0,222.0
12:13:02,23326.0,245.0,222.0
12:13:02,23326.0,245.0,222.0
12:13:02,23184.0,245.0,223.0
12:13:02,23184.0,245.0,223.0
12:13:02,23184.0,245.0,223.0
12:13:02,23184.0,245.0,223.0
12:13:02,23342.0,246.0,223.0
12:13:02,23342.0,246.0,223.0
12:13:02,23342.0,246.0,223.0
12:13:02,23342.0,246.0,223.0
12:13:02,23366.0,244.0,223.0
12:13:02,23366.0,244.0,223.0
12:13:02,23366.0,244.0,223.0
12:13:02,23366.0,244.0,223.0
12:13:02,23310.0,245.0,223.0
12:13:02,23310.0,245.0,223.0
12:13:02,23310.0,245.0,223.0
12:13:02,23310.0,245.0,223.0
12:13:02,23418.0,246.0,223.0
12:13:02,23418.0,246.0,223.0
12:13:02,23418.0,246.0,223.0
12:13:02,23418.0,246.0,223.0
12:13:02,23249.0,244.0,224.0
12:13:02,23249.0,244.0,224.0
12:13:02,23249.0,244.0,224.0
12:13:02,23249.0,244.0,224.0
12:13:02,23284.0,246.0,223.0
12:13:02,23284.0,246.0,223.0
12:13:02,23284.0,246.0,223.0
12:13:02,23284.0,246.0,223.0
12:13:02,23362.0,245.0,224.0
12:13:02,23362.0,245.0,224.0
12:13:02,23362.0,245.0,224.0
12:13:02,23362.0,245.0,224.0
12:13:02,23587.0,245.0,224.0
12:13:02,23587.0,245.0,224.0
12:13:02,23587.0,245.0,224.0
12:13:02,23587.0,245.0,224.0
12:13:02,23462.0,246.0,223.0
12:13:02,23462.0,246.0,223.0
12:13:02,23462.0,246.0,223.0
12:13:02,23462.0,246.0,223.0
12:13:02,23278.0,246.0,223.0
12:13:02,23278.0,246.0,223.0
12:13:02,23278.0,246.0,223.0
12:13:02,23278.0,246.0,223.0
12:13:02,23383.0,245.0,223.0
12:13:02,23383.0,245.0,223.0
12:13:02,23383.0,245.0,223.0
12:13:02,23383.0,245.0,223.0
12:13:02,23373.0,245.0,223.0
12:13:02,23373.0,245.0,223.0
12:13:02,23373.0,245.0,223.0
12:13:02,23373.0,245.0,223.0
12:13:02,23336.0,244.0,224.0
12:13:02,23336.0,244.0,224.0
12:13:02,23336.0,244.0,224.0
12:13:02,23336.0,244.0,224.0
12:13:02,23328.0,245.0,224.0
12:13:02,23328.0,245.0,224.0
12:13:02,23328.0,245.0,224.0
12:13:02,23328.0,245.0,224.0
12:13:02,24086.0,245.0,223.0
12:13:02,24086.0,245.0,223.0
12:13:02,24086.0,245.0,223.0
12:13:02,24086.0,245.0,223.0
12:13:02,23160.0,245.0,225.0
12:13:02,23160.0,245.0,225.0
12:13:02,23160.0,245.0,225.0
12:13:02,23160.0,245.0,225.0
12:13:02,23424.0,245.0,223.0
12:13:02,23424.0,245.0,223.0
12:13:02,23424.0,245.0,223.0
12:13:02,23424.0,245.0,223.0
12:13:02,23373.0,245.0,224.0
12:13:02,23373.0,245.0,224.0
12:13:02,23373.0,245.0,224.0
12:13:02,23373.0,245.0,224.0
12:13:02,23417.0,245.0,224.0
12:13:02,23417.0,245.0,224.0
12:13:02,23417.0,245.0,224.0
12:13:02,23417.0,245.0,224.0
12:13:02,23331.0,246.0,224.0
12:13:02,23331.0,246.0,224.0
12:13:02,23331.0,246.0,224.0
12:13:02,23331.0,246.0,224.0
12:13:02,23438.0,245.0,224.0
12:13:02,23438.0,245.0,224.0
12:13:02,23438.0,245.0,224.0
12:13:02,23438.0,245.0,224.0
12:13:02,23565.0,246.0,223.0
12:13:02,23565.0,246.0,223.0
12:13:02,23565.0,246.0,223.0
12:13:02,23565.0,246.0,223.0
12:13:02,23679.0,247.0,225.0
12:13:02,23679.0,247.0,225.0
12:13:02,23679.0,247.0,225.0
12:13:02,23679.0,247.0,225.0
12:13:02,23615.0,244.0,225.0
12:13:02,23615.0,244.0,225.0
12:13:02,23615.0,244.0,225.0
12:13:02,23615.0,244.0,225.0
12:13:02,23623.0,245.0,223.0
12:13:02,23623.0,245.0,223.0
12:13:02,23623.0,245.0,223.0
12:13:02,23623.0,245.0,223.0
12:13:02,23669.0,246.0,225.0
12:13:02,23669.0,246.0,225.0
12:13:02,23669.0,246.0,225.0
12:13:02,23669.0,246.0,225.0
12:13:02,23621.0,245.0,224.0
12:13:02,23621.0,245.0,224.0
12:13:02,23621.0,245.0,224.0
12:13:02,23621.0,245.0,224.0
12:13:02,23782.0,246.0,224.0
12:13:02,23782.0,246.0,224.0
12:13:02,23782.0,246.0,224.0
12:13:02,23782.0,246.0,224.0
12:13:02,23675.0,245.0,224.0
12:13:02,23675.0,245.0,224.0
12:13:02,23675.0,245.0,224.0
12:13:02,23675.0,245.0,224.0
12:13:02,23588.0,245.0,224.0
12:13:02,23588.0,245.0,224.0
12:13:02,23588.0,245.0,224.0
12:13:02,23588.0,245.0,224.0
12:13:02,23512.0,245.0,223.0
12:13:02,23512.0,245.0,223.0
12:13:02,23512.0,245.0,223.0
12:13:02,23512.0,245.0,223.0
12:13:02,23522.0,246.0,224.0
12:13:02,23522.0,246.0,224.0
12:13:02,23522.0,246.0,224.0
12:13:02,23522.0,246.0,224.0
12:13:02,23626.0,245.0,225.0
12:13:02,23626.0,245.0,225.0
12:13:02,23626.0,245.0,225.0
12:13:02,23626.0,245.0,225.0
12:13:02,23576.0,246.0,224.0
12:13:02,23576.0,246.0,224.0
12:13:02,23576.0,246.0,224.0
12:13:02,23576.0,246.0,224.0
12:13:02,23585.0,245.0,224.0
12:13:02,23585.0,245.0,224.0
12:13:02,23585.0,245.0,224.0
12:13:02,23585.0,245.0,224.0
12:13:02,23484.0,246.0,225.0
12:13:02,23484.0,246.0,225.0
12:13:02,23484.0,246.0,225.0
12:13:02,23484.0,246.0,225.0
12:13:02,23557.0,246.0,224.0
12:13:02,23557.0,246.0,224.0
12:13:02,23557.0,246.0,224.0
12:13:02,23557.0,246.0,224.0
12:13:02,23546.0,245.0,224.0
12:13:02,23546.0,245.0,224.0
12:13:02,23546.0,245.0,224.0
12:13:02,23546.0,245.0,224.0
12:13:02,23638.0,246.0,225.0
12:13:02,23638.0,246.0,225.0
12:13:02,23638.0,246.0,225.0
12:13:02,23638.0,246.0,225.0
12:13:02,23694.0,246.0,224.0
12:13:02,23694.0,246.0,224.0
12:13:02,23694.0,246.0,224.0
12:13:02,23694.0,246.0,224.0
12:13:02,23574.0,245.0,224.0
12:13:02,23574.0,245.0,224.0
12:13:03,23574.0,245.0,224.0
12:13:03,23574.0,245.0,224.0
12:13:03,23549.0,245.0,224.0
12:13:03,23549.0,245.0,224.0
12:13:03,23549.0,245.0,224.0
12:13:03,23549.0,245.0,224.0
12:13:03,23710.0,247.0,224.0
12:13:03,23710.0,247.0,224.0
12:13:03,23710.0,247.0,224.0
12:13:03,23710.0,247.0,224.0
12:13:03,23751.0,246.0,225.0
12:13:03,23751.0,246.0,225.0
12:13:03,23751.0,246.0,225.0
12:13:03,23751.0,246.0,225.0
12:13:03,23682.0,246.0,225.0
12:13:03,23682.0,246.0,225.0
12:13:03,23682.0,246.0,225.0
12:13:03,23682.0,246.0,225.0
12:13:03,23709.0,247.0,224.0
12:13:03,23709.0,247.0,224.0
12:13:03,23709.0,247.0,224.0
12:13:03,23709.0,247.0,224.0
12:13:03,23499.0,244.0,224.0
12:13:03,23499.0,244.0,224.0
12:13:03,23499.0,244.0,224.0
12:13:03,23499.0,244.0,224.0
12:13:03,23567.0,246.0,225.0
12:13:03,23567.0,246.0,225.0
12:13:03,23567.0,246.0,225.0
12:13:03,23567.0,246.0,225.0
12:13:03,23660.0,246.0,224.0
12:13:03,23660.0,246.0,224.0
12:13:03,23660.0,246.0,224.0
12:13:03,23660.0,246.0,224.0
12:13:03,23576.0,247.0,225.0
12:13:03,23576.0,247.0,225.0
12:13:03,23576.0,247.0,225.0
12:13:03,23576.0,247.0,225.0
12:13:03,24037.0,247.0,225.0
12:13:03,24037.0,247.0,225.0
12:13:03,24037.0,247.0,225.0
12:13:03,24037.0,247.0,225.0
12:13:03,23663.0,248.0,223.0
12:13:03,23663.0,248.0,223.0
12:13:03,23663.0,248.0,223.0
12:13:03,23663.0,248.0,223.0
12:13:03,23524.0,246.0,225.0
12:13:03,23524.0,246.0,225.0
12:13:03,23524.0,246.0,225.0
12:13:03,23524.0,246.0,225.0
12:13:03,23594.0,246.0,225.0
12:13:03,23594.0,246.0,225.0
12:13:03,23594.0,246.0,225.0
12:13:03,23594.0,246.0,225.0
12:13:03,23678.0,247.0,224.0
12:13:03,23678.0,247.0,224.0
12:13:03,23678.0,247.0,224.0
12:13:03,23678.0,247.0,224.0
12:13:03,23484.0,244.0,225.0
12:13:03,23484.0,244.0,225.0
12:13:03,23484.0,244.0,225.0
12:13:03,23484.0,244.0,225.0
12:13:03,23621.0,247.0,225.0
12:13:03,23621.0,247.0,225.0
12:13:03,23621.0,247.0,225.0
12:13:03,23621.0,247.0,225.0
12:13:03,23664.0,246.0,224.0
12:13:03,23664.0,246.0,224.0
12:13:03,23664.0,246.0,224.0
12:13:03,23664.0,246.0,224.0
12:13:03,23796.0,248.0,224.0
12:13:03,23796.0,248.0,224.0
12:13:03,23796.0,248.0,224.0
12:13:03,23796.0,248.0,224.0
12:13:03,23678.0,246.0,224.0
12:13:03,23678.0,246.0,224.0
12:13:03,23678.0,246.0,224.0
12:13:03,23678.0,246.0,224.0
12:13:03,23738.0,245.0,223.0
12:13:03,23738.0,245.0,223.0
12:13:03,23738.0,245.0,223.0
12:13:03,23738.0,245.0,223.0
12:13:03,23721.0,246.0,224.0
12:13:03,23721.0,246.0,224.0
12:13:03,23721.0,246.0,224.0
12:13:03,23721.0,246.0,224.0
12:13:03,23909.0,247.0,225.0
12:13:03,23909.0,247.0,225.0
12:13:03,23909.0,247.0,225.0
12:13:03,23909.0,247.0,225.0
12:13:03,24053.0,246.0,223.0
12:13:03,24053.0,246.0,223.0
12:13:03,24053.0,246.0,223.0
12:13:03,24053.0,246.0,223.0
12:13:03,23913.0,247.0,225.0
12:13:03,23913.0,247.0,225.0
12:13:03,23913.0,247.0,225.0
12:13:03,23913.0,247.0,225.0
12:13:03,23747.0,246.0,224.0
12:13:03,23747.0,246.0,224.0
12:13:03,23747.0,246.0,224.0
12:13:03,23747.0,246.0,224.0
12:13:03,23773.0,246.0,224.0
12:13:03,23773.0,246.0,224.0
12:13:03,23773.0,246.0,224.0
12:13:03,23773.0,246.0,224.0
12:13:03,23689.0,247.0,224.0
12:13:03,23689.0,247.0,224.0
12:13:03,23689.0,247.0,224.0
12:13:03,23689.0,247.0,224.0
12:13:03,23736.0,246.0,224.0
12:13:03,23736.0,246.0,224.0
12:13:03,23736.0,246.0,224.0
12:13:03,23736.0,246.0,224.0
12:13:03,23666.0,244.0,224.0
12:13:03,23666.0,244.0,224.0
12:13:03,23666.0,244.0,224.0
12:13:03,23666.0,244.0,224.0
12:13:03,23691.0,246.0,223.0
12:13:03,23691.0,246.0,223.0
12:13:03,23691.0,246.0,223.0
12:13:03,23691.0,246.0,223.0
12:13:03,23748.0,246.0,223.0
12:13:03,23748.0,246.0,223.0
12:13:03,23748.0,246.0,223.0
12:13:03,23748.0,246.0,223.0
12:13:03,23773.0,245.0,224.0
12:13:03,23773.0,245.0,224.0
12:13:03,23773.0,245.0,224.0
12:13:03,23773.0,245.0,224.0
12:13:03,23793.0,244.0,223.0
12:13:03,23793.0,244.0,223.0
12:13:03,23793.0,244.0,223.0
12:13:03,23793.0,244.0,223.0
12:13:03,23659.0,246.0,224.0
12:13:03,23659.0,246.0,224.0
12:13:03,23659.0,246.0,224.0
12:13:03,23659.0,246.0,224.0
12:13:03,23605.0,245.0,224.0
12:13:03,23605.0,245.0,224.0
12:13:03,23605.0,245.0,224.0
12:13:03,23605.0,245.0,224.0
12:13:03,23720.0,244.0,223.0
12:13:03,23720.0,244.0,223.0
12:13:03,23720.0,244.0,223.0
12:13:03,23720.0,244.0,223.0
12:13:03,23639.0,246.0,224.0
12:13:03,23639.0,246.0,224.0
12:13:03,23639.0,246.0,224.0
12:13:03,23639.0,246.0,224.0
12:13:03,23675.0,244.0,223.0
12:13:03,23675.0,244.0,223.0
12:13:03,23675.0,244.0,223.0
12:13:03,23675.0,244.0,223.0
12:13:03,23933.0,245.0,223.0
12:13:03,23933.0,245.0,223.0
12:13:03,23933.0,245.0,223.0
12:13:03,23933.0,245.0,223.0
12:13:03,23721.0,244.0,223.0
12:13:03,23721.0,244.0,223.0
12:13:03,23721.0,244.0,223.0
12:13:03,23721.0,244.0,223.0
12:13:03,23700.0,244.0,223.0
12:13:03,23700.0,244.0,223.0
12:13:03,23700.0,244.0,223.0
12:13:03,23700.0,244.0,223.0
12:13:03,23616.0,246.0,223.0
12:13:03,23616.0,246.0,223.0
12:13:03,23616.0,246.0,223.0
12:13:03,23616.0,246.0,223.0
12:13:03,23619.0,245.0,224.0
12:13:03,23619.0,245.0,224.0
12:13:03,23619.0,245.0,224.0
12:13:03,23619.0,245.0,224.0
12:13:03,23598.0,245.0,222.0
12:13:03,23598.0,245.0,222.0
12:13:03,23598.0,245.0,222.0
12:13:03,23598.0,245.0,222.0
12:13:03,23823.0,246.0,223.0
12:13:03,23823.0,246.0,223.0
12:13:03,23823.0,246.0,223.0
12:13:03,23823.0,246.0,223.0
12:13:03,24295.0,244.0,223.0
12:13:03,24295.0,244.0,223.0
12:13:03,24295.0,244.0,223.0
12:13:03,24295.0,244.0,223.0
12:13:03,23537.0,245.0,223.0
12:13:03,23537.0,245.0,223.0
12:13:03,23537.0,245.0,223.0
12:13:03,23537.0,245.0,223.0
12:13:03,23576.0,244.0,223.0
12:13:03,23576.0,244.0,223.0
12:13:03,23576.0,244.0,223.0
12:13:03,23576.0,244.0,223.0
12:13:03,23673.0,245.0,224.0
12:13:03,23673.0,245.0,224.0
12:13:03,23673.0,245.0,224.0
12:13:03,23673.0,245.0,224.0
12:13:03,23686.0,246.0,222.0
12:13:03,23686.0,246.0,222.0
12:13:03,23686.0,246.0,222.0
12:13:04,23686.0,246.0,222.0
12:13:04,23511.0,243.0,223.0
12:13:04,23511.0,243.0,223.0
12:13:04,23511.0,243.0,223.0
12:13:04,23511.0,243.0,223.0
12:13:04,23680.0,246.0,223.0
12:13:04,23680.0,246.0,223.0
12:13:04,23680.0,246.0,223.0
12:13:04,23680.0,246.0,223.0
12:13:04,23688.0,244.0,222.0
12:13:04,23688.0,244.0,222.0
12:13:04,23688.0,244.0,222.0
12:13:04,23688.0,244.0,222.0
12:13:04,23517.0,245.0,223.0
12:13:04,23517.0,245.0,223.0
12:13:04,23517.0,245.0,223.0
12:13:04,23517.0,245.0,223.0
12:13:04,23680.0,244.0,223.0
12:13:04,23680.0,244.0,223.0
12:13:04,23680.0,244.0,223.0
12:13:04,23680.0,244.0,223.0
12:13:04,23710.0,244.0,222.0
12:13:04,23710.0,244.0,222.0
12:13:04,23710.0,244.0,222.0
12:13:04,23710.0,244.0,222.0
12:13:04,23827.0,243.0,223.0
12:13:04,23827.0,243.0,223.0
12:13:04,23827.0,243.0,223.0
12:13:04,23827.0,243.0,223.0
12:13:04,23675.0,244.0,223.0
12:13:04,23675.0,244.0,223.0
12:13:04,23675.0,244.0,223.0
12:13:04,23675.0,244.0,223.0
12:13:04,23860.0,245.0,224.0
12:13:04,23860.0,245.0,224.0
12:13:04,23860.0,245.0,224.0
12:13:04,23860.0,245.0,224.0
12:13:04,23672.0,244.0,223.0
12:13:04,23672.0,244.0,223.0
12:13:04,23672.0,244.0,223.0
12:13:04,23672.0,244.0,223.0
12:13:04,23556.0,244.0,223.0
12:13:04,23556.0,244.0,223.0
12:13:04,23556.0,244.0,223.0
12:13:04,23556.0,244.0,223.0
12:13:04,23586.0,244.0,223.0
12:13:04,23586.0,244.0,223.0
12:13:04,23586.0,244.0,223.0
12:13:04,23586.0,244.0,223.0
12:13:04,23471.0,244.0,222.0
12:13:04,23471.0,244.0,222.0
12:13:04,23471.0,244.0,222.0
12:13:04,23471.0,244.0,222.0
12:13:04,23531.0,244.0,223.0
12:13:04,23531.0,244.0,223.0
12:13:04,23531.0,244.0,223.0
12:13:04,23531.0,244.0,223.0
12:13:04,23535.0,244.0,223.0
12:13:04,23535.0,244.0,223.0
12:13:04,23535.0,244.0,223.0
12:13:04,23535.0,244.0,223.0
12:13:04,23496.0,245.0,222.0
12:13:04,23496.0,245.0,222.0
12:13:04,23496.0,245.0,222.0
12:13:04,23496.0,245.0,222.0
12:13:04,23523.0,245.0,223.0
12:13:04,23523.0,245.0,223.0
12:13:04,23523.0,245.0,223.0
12:13:04,23523.0,245.0,223.0
12:13:04,23501.0,244.0,224.0
12:13:04,23501.0,244.0,224.0
12:13:04,23501.0,244.0,224.0
12:13:04,23501.0,244.0,224.0
12:13:04,23482.0,245.0,223.0
12:13:04,23482.0,245.0,223.0
12:13:04,23482.0,245.0,223.0
12:13:04,23482.0,245.0,223.0
12:13:04,23498.0,243.0,223.0
12:13:04,23498.0,243.0,223.0
12:13:04,23498.0,243.0,223.0
12:13:04,23498.0,243.0,223.0
12:13:04,23476.0,244.0,223.0
12:13:04,23476.0,244.0,223.0
12:13:04,23476.0,244.0,223.0
12:13:04,23476.0,244.0,223.0
12:13:04,23348.0,244.0,223.0
12:13:04,23348.0,244.0,223.0
12:13:04,23348.0,244.0,223.0
12:13:04,23348.0,244.0,223.0
12:13:04,23489.0,246.0,223.0
12:13:04,23489.0,246.0,223.0
12:13:04,23489.0,246.0,223.0
12:13:04,23489.0,246.0,223.0
12:13:04,23466.0,245.0,223.0
12:13:04,23466.0,245.0,223.0
12:13:04,23466.0,245.0,223.0
12:13:04,23466.0,245.0,223.0
12:13:04,23518.0,244.0,222.0
12:13:04,23518.0,244.0,222.0
12:13:04,23518.0,244.0,222.0
12:13:04,23518.0,244.0,222.0
12:13:04,23509.0,246.0,224.0
12:13:04,23509.0,246.0,224.0
12:13:04,23509.0,246.0,224.0
12:13:04,23509.0,246.0,224.0
12:13:04,23367.0,244.0,223.0
12:13:04,23367.0,244.0,223.0
12:13:04,23367.0,244.0,223.0
12:13:04,23367.0,244.0,223.0
12:13:04,23364.0,244.0,223.0
12:13:04,23364.0,244.0,223.0
12:13:04,23364.0,244.0,223.0
12:13:04,23364.0,244.0,223.0
12:13:04,23359.0,246.0,223.0
12:13:04,23359.0,246.0,223.0
12:13:04,23359.0,246.0,223.0
12:13:04,23359.0,246.0,223.0
12:13:04,23209.0,245.0,224.0
12:13:04,23209.0,245.0,224.0
12:13:04,23209.0,245.0,224.0
12:13:04,23209.0,245.0,224.0
12:13:04,23565.0,245.0,224.0
12:13:04,23565.0,245.0,224.0
12:13:04,23565.0,245.0,224.0
12:13:04,23565.0,245.0,224.0
12:13:04,23549.0,245.0,224.0
12:13:04,23549.0,245.0,224.0
12:13:04,23549.0,245.0,224.0
12:13:04,23549.0,245.0,224.0
12:13:04,23275.0,245.0,224.0
12:13:04,23275.0,245.0,224.0
12:13:04,23275.0,245.0,224.0
12:13:04,23275.0,245.0,224.0
12:13:04,23346.0,245.0,225.0
12:13:04,23346.0,245.0,225.0
12:13:04,23346.0,245.0,225.0
12:13:04,23346.0,245.0,225.0
12:13:04,23249.0,244.0,223.0
12:13:04,23249.0,244.0,223.0
12:13:04,23249.0,244.0,223.0
12:13:04,23249.0,244.0,223.0
12:13:04,23275.0,245.0,223.0
12:13:04,23275.0,245.0,223.0
12:13:04,23275.0,245.0,223.0
12:13:04,23275.0,245.0,223.0
12:13:04,23338.0,246.0,224.0
12:13:04,23338.0,246.0,224.0
12:13:04,23338.0,246.0,224.0
12:13:04,23338.0,246.0,224.0
12:13:04,23343.0,245.0,222.0
12:13:04,23343.0,245.0,222.0
12:13:04,23343.0,245.0,222.0
12:13:04,23343.0,245.0,222.0
12:13:04,23229.0,245.0,224.0
12:13:04,23229.0,245.0,224.0
12:13:04,23229.0,245.0,224.0
12:13:04,23229.0,245.0,224.0
12:13:04,23346.0,245.0,225.0
12:13:04,23346.0,245.0,225.0
12:13:04,23346.0,245.0,225.0
12:13:04,23346.0,245.0,225.0
12:13:04,23322.0,245.0,223.0
12:13:04,23322.0,245.0,223.0
12:13:04,23322.0,245.0,223.0
12:13:04,23322.0,245.0,223.0
12:13:04,23473.0,245.0,224.0
12:13:04,23473.0,245.0,224.0
12:13:04,23473.0,245.0,224.0
12:13:04,23473.0,245.0,224.0
12:13:04,23442.0,245.0,223.0
12:13:04,23442.0,245.0,223.0
12:13:04,23442.0,245.0,223.0
12:13:04,23442.0,245.0,223.0
12:13:04,23475.0,246.0,223.0
12:13:04,23475.0,246.0,223.0
12:13:04,23475.0,246.0,223.0
12:13:04,23475.0,246.0,223.0
12:13:04,23320.0,245.0,224.0
12:13:04,23320.0,245.0,224.0
12:13:04,23320.0,245.0,224.0
12:13:04,23320.0,245.0,224.0
12:13:04,23284.0,245.0,223.0
12:13:04,23284.0,245.0,223.0
12:13:04,23284.0,245.0,223.0
12:13:04,23284.0,245.0,223.0
12:13:04,23198.0,244.0,222.0
12:13:04,23198.0,244.0,222.0
12:13:04,23198.0,244.0,222.0
12:13:04,23198.0,244.0,222.0
12:13:04,23146.0,246.0,223.0
12:13:04,23146.0,246.0,223.0
12:13:04,23146.0,246.0,223.0
12:13:04,23146.0,246.0,223.0
12:13:04,23101.0,245.0,223.0
12:13:04,23101.0,245.0,223.0
12:13:04,23101.0,245.0,223.0
12:13:04,23101.0,245.0,223.0
12:13:04,23147.0,245.0,224.0
12:13:04,23147.0,245.0,224.0
12:13:04,23147.0,245.0,224.0
12:13:04,23147.0,245.0,224.0
12:13:05,23116.0,246.0,223.0
12:13:05,23116.0,246.0,223.0
12:13:05,23116.0,246.0,223.0
12:13:05,23116.0,246.0,223.0
12:13:05,23245.0,246.0,223.0
12:13:05,23245.0,246.0,223.0
12:13:05,23245.0,246.0,223.0
12:13:05,23245.0,246.0,223.0
12:13:05,23189.0,246.0,224.0
12:13:05,23189.0,246.0,224.0
12:13:05,23189.0,246.0,224.0
12:13:05,23189.0,246.0,224.0
12:13:05,23162.0,245.0,223.0
12:13:05,23162.0,245.0,223.0
12:13:05,23162.0,245.0,223.0
12:13:05,23162.0,245.0,223.0
12:13:05,23165.0,246.0,224.0
12:13:05,23165.0,246.0,224.0
12:13:05,23165.0,246.0,224.0
12:13:05,23165.0,246.0,224.0
12:13:05,23215.0,246.0,224.0
12:13:05,23215.0,246.0,224.0
12:13:05,23215.0,246.0,224.0
12:13:05,23215.0,246.0,224.0
12:13:05,23096.0,246.0,224.0
12:13:05,23096.0,246.0,224.0
12:13:05,23096.0,246.0,224.0
12:13:05,23096.0,246.0,224.0
12:13:05,23123.0,246.0,224.0
12:13:05,23123.0,246.0,224.0
12:13:05,23123.0,246.0,224.0
12:13:05,23123.0,246.0,224.0
12:13:05,23181.0,246.0,224.0
12:13:05,23181.0,246.0,224.0
12:13:05,23181.0,246.0,224.0
12:13:05,23181.0,246.0,224.0
12:13:05,23317.0,245.0,224.0
12:13:05,23317.0,245.0,224.0
12:13:05,23317.0,245.0,224.0
12:13:05,23317.0,245.0,224.0
12:13:05,23154.0,246.0,224.0
12:13:05,23154.0,246.0,224.0
12:13:05,23154.0,246.0,224.0
12:13:05,23154.0,246.0,224.0
12:13:05,23142.0,246.0,225.0
12:13:05,23142.0,246.0,225.0
12:13:05,23142.0,246.0,225.0
12:13:05,23142.0,246.0,225.0
12:13:05,22995.0,246.0,223.0
12:13:05,22995.0,246.0,223.0
12:13:05,22995.0,246.0,223.0
12:13:05,22995.0,246.0,223.0
12:13:05,22941.0,245.0,224.0
12:13:05,22941.0,245.0,224.0
12:13:05,22941.0,245.0,224.0
12:13:05,22941.0,245.0,224.0
12:13:05,23154.0,247.0,223.0
12:13:05,23154.0,247.0,223.0
12:13:05,23154.0,247.0,223.0
12:13:05,23154.0,247.0,223.0
12:13:05,22924.0,245.0,224.0
12:13:05,22924.0,245.0,224.0
12:13:05,22924.0,245.0,224.0
12:13:05,22924.0,245.0,224.0
12:13:05,23616.0,247.0,225.0
12:13:05,23616.0,247.0,225.0
12:13:05,23616.0,247.0,225.0
12:13:05,23616.0,247.0,225.0
12:13:05,22942.0,245.0,223.0
12:13:05,22942.0,245.0,223.0
12:13:05,22942.0,245.0,223.0
12:13:05,22942.0,245.0,223.0
12:13:05,23002.0,246.0,224.0
12:13:05,23002.0,246.0,224.0
12:13:05,23002.0,246.0,224.0
12:13:05,23002.0,246.0,224.0
12:13:05,22932.0,246.0,225.0
12:13:05,22932.0,246.0,225.0
12:13:05,22932.0,246.0,225.0
12:13:05,22932.0,246.0,225.0
12:13:05,22963.0,247.0,225.0
12:13:05,22963.0,247.0,225.0
12:13:05,22963.0,247.0,225.0
12:13:05,22963.0,247.0,225.0
12:13:05,23102.0,247.0,224.0
12:13:05,23102.0,247.0,224.0
12:13:05,23102.0,247.0,224.0
12:13:05,23102.0,247.0,224.0
12:13:05,23016.0,246.0,225.0
12:13:05,23016.0,246.0,225.0
12:13:05,23016.0,246.0,225.0
12:13:05,23016.0,246.0,225.0
12:13:05,23149.0,246.0,225.0
12:13:05,23149.0,246.0,225.0
12:13:05,23149.0,246.0,225.0
12:13:05,23149.0,246.0,225.0
12:13:05,23039.0,247.0,224.0
12:13:05,23039.0,247.0,224.0
12:13:05,23039.0,247.0,224.0
12:13:05,23039.0,247.0,224.0
12:13:05,23195.0,246.0,224.0
12:13:05,23195.0,246.0,224.0
12:13:05,23195.0,246.0,224.0
12:13:05,23195.0,246.0,224.0
12:13:05,23098.0,246.0,225.0
12:13:05,23098.0,246.0,225.0
12:13:05,23098.0,246.0,225.0
12:13:05,23098.0,246.0,225.0
12:13:05,23116.0,246.0,224.0
12:13:05,23116.0,246.0,224.0
12:13:05,23116.0,246.0,224.0
12:13:05,23116.0,246.0,224.0
12:13:05,23201.0,244.0,224.0
12:13:05,23201.0,244.0,224.0
12:13:05,23201.0,244.0,224.0
12:13:05,23201.0,244.0,224.0
12:13:05,23220.0,246.0,225.0
12:13:05,23220.0,246.0,225.0
12:13:05,23220.0,246.0,225.0
12:13:05,23220.0,246.0,225.0
12:13:05,23137.0,246.0,223.0
12:13:05,23137.0,246.0,223.0
12:13:05,23137.0,246.0,223.0
12:13:05,23137.0,246.0,223.0
12:13:05,23017.0,246.0,224.0
12:13:05,23017.0,246.0,224.0
12:13:05,23017.0,246.0,224.0
12:13:05,23017.0,246.0,224.0
12:13:05,22981.0,246.0,224.0
12:13:05,22981.0,246.0,224.0
12:13:05,22981.0,246.0,224.0
12:13:05,22981.0,246.0,224.0
12:13:05,23031.0,247.0,223.0
12:13:05,23031.0,247.0,223.0
12:13:05,23031.0,247.0,223.0
12:13:05,23031.0,247.0,223.0
12:13:05,23030.0,245.0,224.0
12:13:05,23030.0,245.0,224.0
12:13:05,23030.0,245.0,224.0
12:13:05,23030.0,245.0,224.0
12:13:05,23012.0,245.0,224.0
12:13:05,23012.0,245.0,224.0
12:13:05,23012.0,245.0,224.0
12:13:05,23012.0,245.0,224.0
12:13:05,22996.0,245.0,223.0
12:13:05,22996.0,245.0,223.0
12:13:05,22996.0,245.0,223.0
12:13:05,22996.0,245.0,223.0
12:13:05,23014.0,246.0,225.0
12:13:05,23014.0,246.0,225.0
12:13:05,23014.0,246.0,225.0
12:13:05,23014.0,246.0,225.0
12:13:05,22916.0,244.0,224.0
12:13:05,22916.0,244.0,224.0
12:13:05,22916.0,244.0,224.0
12:13:05,22916.0,244.0,224.0
12:13:05,22969.0,246.0,224.0
12:13:05,22969.0,246.0,224.0
12:13:05,22969.0,246.0,224.0
12:13:05,22969.0,246.0,224.0
12:13:05,22959.0,246.0,223.0
12:13:05,22959.0,246.0,223.0
12:13:05,22959.0,246.0,223.0
12:13:05,22959.0,246.0,223.0
12:13:05,23114.0,245.0,224.0
12:13:05,23114.0,245.0,224.0
12:13:05,23114.0,245.0,224.0
12:13:05,23114.0,245.0,224.0
12:13:05,23012.0,245.0,224.0
12:13:05,23012.0,245.0,224.0
12:13:05,23012.0,245.0,224.0
12:13:05,23012.0,245.0,224.0
12:13:05,23142.0,245.0,223.0
12:13:05,23142.0,245.0,223.0
12:13:05,23142.0,245.0,223.0
12:13:05,23142.0,245.0,223.0
12:13:05,23136.0,245.0,224.0
12:13:05,23136.0,245.0,224.0
12:13:05,23136.0,245.0,224.0
12:13:05,23136.0,245.0,224.0
12:13:05,23222.0,245.0,223.0
12:13:05,23222.0,245.0,223.0
12:13:05,23222.0,245.0,223.0
12:13:05,23222.0,245.0,223.0
12:13:05,23005.0,247.0,223.0
12:13:05,23005.0,247.0,223.0
12:13:05,23005.0,247.0,223.0
12:13:05,23005.0,247.0,223.0
12:13:05,23093.0,244.0,224.0
12:13:05,23093.0,244.0,224.0
12:13:05,23093.0,244.0,224.0
12:13:05,23093.0,244.0,224.0
12:13:05,23067.0,246.0,224.0
12:13:05,23067.0,246.0,224.0
12:13:05,23067.0,246.0,224.0
12:13:05,23067.0,246.0,224.0
12:13:05,23071.0,245.0,222.0
12:13:05,23071.0,245.0,222.0
12:13:05,23071.0,245.0,222.0
12:13:05,23071.0,245.0,222.0
12:13:05,22981.0,243.0,224.0
12:13:06,22981.0,243.0,224.0
12:13:06,22981.0,243.0,224.0
12:13:06,22981.0,243.0,224.0
12:13:06,23371.0,245.0,223.0
12:13:06,23371.0,245.0,223.0
12:13:06,23371.0,245.0,223.0
12:13:06,23371.0,245.0,223.0
12:13:06,23071.0,245.0,221.0
12:13:06,23071.0,245.0,221.0
12:13:06,23071.0,245.0,221.0
12:13:06,23071.0,245.0,221.0
12:13:06,22991.0,245.0,223.0
12:13:06,22991.0,245.0,223.0
12:13:06,22991.0,245.0,223.0
12:13:06,22991.0,245.0,223.0
12:13:06,23066.0,245.0,222.0
12:13:06,23066.0,245.0,222.0
12:13:06,23066.0,245.0,222.0
12:13:06,23066.0,245.0,222.0
12:13:06,23039.0,245.0,223.0
12:13:06,23039.0,245.0,223.0
12:13:06,23039.0,245.0,223.0
12:13:06,23039.0,245.0,223.0
12:13:06,22989.0,245.0,223.0
12:13:06,22989.0,245.0,223.0
12:13:06,22989.0,245.0,223.0
12:13:06,22989.0,245.0,223.0
12:13:06,23217.0,245.0,223.0
12:13:06,23217.0,245.0,223.0
12:13:06,23217.0,245.0,223.0
12:13:06,23217.0,245.0,223.0
12:13:06,23098.0,243.0,223.0
12:13:06,23098.0,243.0,223.0
12:13:06,23098.0,243.0,223.0
12:13:06,23098.0,243.0,223.0
12:13:06,23072.0,244.0,224.0
12:13:06,23072.0,244.0,224.0
12:13:06,23072.0,244.0,224.0
12:13:06,23072.0,244.0,224.0
12:13:06,23211.0,244.0,224.0
12:13:06,23211.0,244.0,224.0
12:13:06,23211.0,244.0,224.0
12:13:06,23211.0,244.0,224.0
12:13:06,23205.0,245.0,223.0
12:13:06,23205.0,245.0,223.0
12:13:06,23205.0,245.0,223.0
12:13:06,23205.0,245.0,223.0
12:13:06,23299.0,245.0,223.0
12:13:06,23299.0,245.0,223.0
12:13:06,23299.0,245.0,223.0
12:13:06,23299.0,245.0,223.0
12:13:06,23330.0,244.0,223.0
12:13:06,23330.0,244.0,223.0
12:13:06,23330.0,244.0,223.0
12:13:06,23330.0,244.0,223.0
12:13:06,23353.0,244.0,224.0
12:13:06,23353.0,244.0,224.0
12:13:06,23353.0,244.0,224.0
12:13:06,23353.0,244.0,224.0
12:13:06,23333.0,246.0,223.0
12:13:06,23333.0,246.0,223.0
12:13:06,23333.0,246.0,223.0
12:13:06,23333.0,246.0,223.0
12:13:06,23233.0,244.0,223.0
12:13:06,23233.0,244.0,223.0
12:13:06,23233.0,244.0,223.0
12:13:06,23233.0,244.0,223.0
12:13:06,23206.0,243.0,223.0
12:13:06,23206.0,243.0,223.0
12:13:06,23206.0,243.0,223.0
12:13:06,23206.0,243.0,223.0
12:13:06,23097.0,244.0,222.0
12:13:06,23097.0,244.0,222.0
12:13:06,23097.0,244.0,222.0
12:13:06,23097.0,244.0,222.0
12:13:06,23208.0,244.0,223.0
12:13:06,23208.0,244.0,223.0
12:13:06,23208.0,244.0,223.0
12:13:06,23208.0,244.0,223.0
12:13:06,23194.0,244.0,223.0
12:13:06,23194.0,244.0,223.0
12:13:06,23194.0,244.0,223.0
12:13:06,23194.0,244.0,223.0
12:13:06,23194.0,244.0,222.0
12:13:06,23194.0,244.0,222.0
12:13:06,23194.0,244.0,222.0
12:13:06,23194.0,244.0,222.0
12:13:06,23269.0,246.0,223.0
12:13:06,23269.0,246.0,223.0
12:13:06,23269.0,246.0,223.0
12:13:06,23269.0,246.0,223.0
12:13:06,23277.0,243.0,223.0
12:13:06,23277.0,243.0,223.0
12:13:06,23277.0,243.0,223.0
12:13:06,23277.0,243.0,223.0
12:13:06,23215.0,245.0,223.0
12:13:06,23215.0,245.0,223.0
12:13:06,23215.0,245.0,223.0
12:13:06,23215.0,245.0,223.0
12:13:06,23189.0,244.0,223.0
12:13:06,23189.0,244.0,223.0
12:13:06,23189.0,244.0,223.0
12:13:06,23189.0,244.0,223.0
12:13:06,23353.0,243.0,223.0
12:13:06,23353.0,243.0,223.0
12:13:06,23353.0,243.0,223.0
12:13:06,23353.0,243.0,223.0
12:13:06,23285.0,244.0,222.0
12:13:06,23285.0,244.0,222.0
12:13:06,23285.0,244.0,222.0
12:13:06,23285.0,244.0,222.0
12:13:06,23374.0,245.0,222.0
12:13:06,23374.0,245.0,222.0
12:13:06,23374.0,245.0,222.0
12:13:06,23374.0,245.0,222.0
12:13:06,23384.0,244.0,222.0
12:13:06,23384.0,244.0,222.0
12:13:06,23384.0,244.0,222.0
12:13:06,23384.0,244.0,222.0
12:13:06,23466.0,245.0,224.0
12:13:06,23466.0,245.0,224.0
12:13:06,23466.0,245.0,224.0
12:13:06,23466.0,245.0,224.0
12:13:06,23405.0,245.0,222.0
12:13:06,23405.0,245.0,222.0
12:13:06,23405.0,245.0,222.0
12:13:06,23405.0,245.0,222.0
12:13:06,23351.0,244.0,224.0
12:13:06,23351.0,244.0,224.0
12:13:06,23351.0,244.0,224.0
12:13:06,23351.0,244.0,224.0
12:13:06,23287.0,244.0,224.0
12:13:06,23287.0,244.0,224.0
12:13:06,23287.0,244.0,224.0
12:13:06,23287.0,244.0,224.0
12:13:06,23416.0,245.0,223.0
12:13:06,23416.0,245.0,223.0
12:13:06,23416.0,245.0,223.0
12:13:06,23416.0,245.0,223.0
12:13:06,23321.0,244.0,223.0
12:13:06,23321.0,244.0,223.0
12:13:06,23321.0,244.0,223.0
12:13:06,23321.0,244.0,223.0
12:13:06,23764.0,245.0,223.0
12:13:06,23764.0,245.0,223.0
12:13:06,23764.0,245.0,223.0
12:13:06,23764.0,245.0,223.0
12:13:06,23422.0,244.0,223.0
12:13:06,23422.0,244.0,223.0
12:13:06,23422.0,244.0,223.0
12:13:06,23422.0,244.0,223.0
12:13:06,23425.0,244.0,222.0
12:13:06,23425.0,244.0,222.0
12:13:06,23425.0,244.0,222.0
12:13:06,23425.0,244.0,222.0
12:13:06,23318.0,246.0,224.0
12:13:06,23318.0,246.0,224.0
12:13:06,23318.0,246.0,224.0
12:13:06,23318.0,246.0,224.0
12:13:06,23531.0,244.0,225.0
12:13:06,23531.0,244.0,225.0
12:13:06,23531.0,244.0,225.0
12:13:06,23531.0,244.0,225.0
12:13:06,23375.0,246.0,224.0
12:13:06,23375.0,246.0,224.0
12:13:06,23375.0,246.0,224.0
12:13:06,23375.0,246.0,224.0
12:13:06,23358.0,245.0,224.0
12:13:06,23358.0,245.0,224.0
12:13:06,23358.0,245.0,224.0
12:13:06,23358.0,245.0,224.0
12:13:06,23534.0,245.0,224.0
12:13:06,23534.0,245.0,224.0
12:13:06,23534.0,245.0,224.0
12:13:06,23534.0,245.0,224.0
12:13:06,23578.0,246.0,224.0
12:13:06,23578.0,246.0,224.0
12:13:06,23578.0,246.0,224.0
12:13:06,23578.0,246.0,224.0
12:13:06,23615.0,245.0,224.0
12:13:06,23615.0,245.0,224.0
12:13:06,23615.0,245.0,224.0
12:13:06,23615.0,245.0,224.0
12:13:06,23676.0,245.0,225.0
12:13:06,23676.0,245.0,225.0
12:13:06,23676.0,245.0,225.0
12:13:06,23676.0,245.0,225.0
12:13:06,23574.0,244.0,225.0
12:13:06,23574.0,244.0,225.0
12:13:06,23574.0,244.0,225.0
12:13:06,23574.0,244.0,225.0
12:13:06,23722.0,245.0,224.0
12:13:06,23722.0,245.0,224.0
12:13:06,23722.0,245.0,224.0
12:13:06,23722.0,245.0,224.0
12:13:06,23713.0,245.0,224.0
12:13:06,23713.0,245.0,224.0
12:13:06,23713.0,245.0,224.0
12:13:06,23713.0,245.0,224.0
12:13:06,23724.0,246.0,223.0
12:13:06,23724.0,246.0,223.0
12:13:07,23724.0,246.0,223.0
12:13:07,23724.0,246.0,223.0
12:13:07,23667.0,245.0,223.0
12:13:07,23667.0,245.0,223.0
12:13:07,23667.0,245.0,223.0
12:13:07,23667.0,245.0,223.0
12:13:07,23541.0,244.0,224.0
12:13:07,23541.0,244.0,224.0
12:13:07,23541.0,244.0,224.0
12:13:07,23541.0,244.0,224.0
12:13:07,23501.0,246.0,225.0
12:13:07,23501.0,246.0,225.0
12:13:07,23501.0,246.0,225.0
12:13:07,23501.0,246.0,225.0
12:13:07,23498.0,245.0,224.0
12:13:07,23498.0,245.0,224.0
12:13:07,23498.0,245.0,224.0
12:13:07,23498.0,245.0,224.0
12:13:07,23545.0,246.0,223.0
12:13:07,23545.0,246.0,223.0
12:13:07,23545.0,246.0,223.0
12:13:07,23545.0,246.0,223.0
12:13:07,23592.0,246.0,224.0
12:13:07,23592.0,246.0,224.0
12:13:07,23592.0,246.0,224.0
12:13:07,23592.0,246.0,224.0
12:13:07,23541.0,245.0,224.0
12:13:07,23541.0,245.0,224.0
12:13:07,23541.0,245.0,224.0
12:13:07,23541.0,245.0,224.0
12:13:07,23633.0,245.0,224.0
12:13:07,23633.0,245.0,224.0
12:13:07,23633.0,245.0,224.0
12:13:07,23633.0,245.0,224.0
12:13:07,23647.0,246.0,224.0
12:13:07,23647.0,246.0,224.0
12:13:07,23647.0,246.0,224.0
12:13:07,23647.0,246.0,224.0
12:13:07,23700.0,246.0,224.0
12:13:07,23700.0,246.0,224.0
12:13:07,23700.0,246.0,224.0
12:13:07,23700.0,246.0,224.0
12:13:07,23539.0,246.0,223.0
12:13:07,23539.0,246.0,223.0
12:13:07,23539.0,246.0,223.0
12:13:07,23539.0,246.0,223.0
12:13:07,23653.0,246.0,223.0
12:13:07,23653.0,246.0,223.0
12:13:07,23653.0,246.0,223.0
12:13:07,23653.0,246.0,223.0
12:13:07,23667.0,246.0,225.0
12:13:07,23667.0,246.0,225.0
12:13:07,23667.0,246.0,225.0
12:13:07,23667.0,246.0,225.0
12:13:07,23787.0,246.0,223.0
12:13:07,23787.0,246.0,223.0
12:13:07,23787.0,246.0,223.0
12:13:07,23787.0,246.0,223.0
12:13:07,23772.0,245.0,224.0
12:13:07,23772.0,245.0,224.0
12:13:07,23772.0,245.0,224.0
12:13:07,23772.0,245.0,224.0
12:13:07,23664.0,246.0,225.0
12:13:07,23664.0,246.0,225.0
12:13:07,23664.0,246.0,225.0
12:13:07,23664.0,246.0,225.0
12:13:07,23566.0,245.0,223.0
12:13:07,23566.0,245.0,223.0
12:13:07,23566.0,245.0,223.0
12:13:07,23566.0,245.0,223.0
12:13:07,23630.0,245.0,225.0
12:13:07,23630.0,245.0,225.0
12:13:07,23630.0,245.0,225.0
12:13:07,23630.0,245.0,225.0
12:13:07,23645.0,245.0,225.0
12:13:07,23645.0,245.0,225.0
12:13:07,23645.0,245.0,225.0
12:13:07,23645.0,245.0,225.0
12:13:07,23714.0,246.0,224.0
12:13:07,23714.0,246.0,224.0
12:13:07,23714.0,246.0,224.0
12:13:07,23714.0,246.0,224.0
12:13:07,24158.0,244.0,223.0
12:13:07,24158.0,244.0,223.0
12:13:07,24158.0,244.0,223.0
12:13:07,24158.0,244.0,223.0
12:13:07,23613.0,245.0,225.0
12:13:07,23613.0,245.0,225.0
12:13:07,23613.0,245.0,225.0
12:13:07,23613.0,245.0,225.0
12:13:07,23615.0,246.0,224.0
12:13:07,23615.0,246.0,224.0
12:13:07,23615.0,246.0,224.0
12:13:07,23615.0,246.0,224.0
12:13:07,23682.0,245.0,225.0
12:13:07,23682.0,245.0,225.0
12:13:07,23682.0,245.0,225.0
12:13:07,23682.0,245.0,225.0
12:13:07,23739.0,246.0,223.0
12:13:07,23739.0,246.0,223.0
12:13:07,23739.0,246.0,223.0
12:13:07,23739.0,246.0,223.0
12:13:07,23737.0,246.0,224.0
12:13:07,23737.0,246.0,224.0
12:13:07,23737.0,246.0,224.0
12:13:07,23737.0,246.0,224.0
12:13:07,23778.0,244.0,224.0
12:13:07,23778.0,244.0,224.0
12:13:07,23778.0,244.0,224.0
12:13:07,23778.0,244.0,224.0
12:13:07,23687.0,247.0,225.0
12:13:07,23687.0,247.0,225.0
12:13:07,23687.0,247.0,225.0
12:13:07,23687.0,247.0,225.0
12:13:07,23766.0,246.0,224.0
12:13:07,23766.0,246.0,224.0
12:13:07,23766.0,246.0,224.0
12:13:07,23766.0,246.0,224.0
12:13:07,23722.0,244.0,225.0
12:13:07,23722.0,244.0,225.0
12:13:07,23722.0,244.0,225.0
12:13:07,23722.0,244.0,225.0
12:13:07,23863.0,246.0,224.0
12:13:07,23863.0,246.0,224.0
12:13:07,23863.0,246.0,224.0
12:13:07,23863.0,246.0,224.0
12:13:07,23880.0,245.0,224.0
12:13:07,23880.0,245.0,224.0
12:13:07,23880.0,245.0,224.0
12:13:07,23880.0,245.0,224.0
12:13:07,23955.0,246.0,224.0
12:13:07,23955.0,246.0,224.0
12:13:07,23955.0,246.0,224.0
12:13:07,23955.0,246.0,224.0
12:13:07,24087.0,246.0,224.0
12:13:07,24087.0,246.0,224.0
12:13:07,24087.0,246.0,224.0
12:13:07,24087.0,246.0,224.0
12:13:07,23878.0,245.0,224.0
12:13:07,23878.0,245.0,224.0
12:13:07,23878.0,245.0,224.0
12:13:07,23878.0,245.0,224.0
12:13:07,23812.0,246.0,223.0
12:13:07,23812.0,246.0,223.0
12:13:07,23812.0,246.0,223.0
12:13:07,23812.0,246.0,223.0
12:13:07,23758.0,246.0,223.0
12:13:07,23758.0,246.0,223.0
12:13:07,23758.0,246.0,223.0
12:13:07,23758.0,246.0,223.0
12:13:07,23766.0,245.0,225.0
12:13:07,23766.0,245.0,225.0
12:13:07,23766.0,245.0,225.0
12:13:07,23766.0,245.0,225.0
12:13:07,23744.0,246.0,225.0
12:13:07,23744.0,246.0,225.0
12:13:07,23744.0,246.0,225.0
12:13:07,23744.0,246.0,225.0
12:13:07,23656.0,246.0,223.0
12:13:07,23656.0,246.0,223.0
12:13:07,23656.0,246.0,223.0
12:13:07,23656.0,246.0,223.0
12:13:07,23754.0,245.0,224.0
12:13:07,23754.0,245.0,224.0
12:13:07,23754.0,245.0,224.0
12:13:07,23754.0,245.0,224.0
12:13:07,23732.0,246.0,223.0
12:13:07,23732.0,246.0,223.0
12:13:07,23732.0,246.0,223.0
12:13:07,23732.0,246.0,223.0
12:13:07,23768.0,245.0,222.0
12:13:07,23768.0,245.0,222.0
12:13:07,23768.0,245.0,222.0
12:13:07,23768.0,245.0,222.0
12:13:07,23776.0,245.0,223.0
12:13:07,23776.0,245.0,223.0
12:13:07,23776.0,245.0,223.0
12:13:07,23776.0,245.0,223.0
12:13:07,23949.0,246.0,224.0
12:13:07,23949.0,246.0,224.0
12:13:07,23949.0,246.0,224.0
12:13:07,23949.0,246.0,224.0
12:13:07,23777.0,245.0,222.0
12:13:07,23777.0,245.0,222.0
12:13:07,23777.0,245.0,222.0
12:13:07,23777.0,245.0,222.0
12:13:07,23768.0,245.0,224.0
12:13:07,23768.0,245.0,224.0
12:13:07,23768.0,245.0,224.0
12:13:07,23768.0,245.0,224.0
12:13:07,23913.0,247.0,223.0
12:13:07,23913.0,247.0,223.0
12:13:07,23913.0,247.0,223.0
12:13:07,23913.0,247.0,223.0
12:13:07,23896.0,245.0,223.0
12:13:07,23896.0,245.0,223.0
12:13:07,23896.0,245.0,223.0
12:13:07,23896.0,245.0,223.0
12:13:07,23815.0,245.0,224.0
12:13:07,23815.0,245.0,224.0
12:13:08,23815.0,245.0,224.0
12:13:08,23815.0,245.0,224.0
12:13:08,23746.0,246.0,224.0
12:13:08,23746.0,246.0,224.0
12:13:08,23746.0,246.0,224.0
12:13:08,23746.0,246.0,224.0
12:13:08,23662.0,244.0,223.0
12:13:08,23662.0,244.0,223.0
12:13:08,23662.0,244.0,223.0
12:13:08,23662.0,244.0,223.0
12:13:08,23575.0,245.0,224.0
12:13:08,23575.0,245.0,224.0
12:13:08,23575.0,245.0,224.0
12:13:08,23575.0,245.0,224.0
12:13:08,23609.0,245.0,224.0
12:13:08,23609.0,245.0,224.0
12:13:08,23609.0,245.0,224.0
12:13:08,23609.0,245.0,224.0
12:13:08,23651.0,245.0,223.0
12:13:08,23651.0,245.0,223.0
12:13:08,23651.0,245.0,223.0
12:13:08,23651.0,245.0,223.0
12:13:08,24409.0,245.0,222.0
12:13:08,24409.0,245.0,222.0
12:13:08,24409.0,245.0,222.0
12:13:08,24409.0,245.0,222.0
12:13:08,23654.0,245.0,224.0
12:13:08,23654.0,245.0,224.0
12:13:08,23654.0,245.0,224.0
12:13:08,23654.0,245.0,224.0
12:13:08,23613.0,245.0,223.0
12:13:08,23613.0,245.0,223.0
12:13:08,23613.0,245.0,223.0
12:13:08,23613.0,245.0,223.0
12:13:08,23676.0,244.0,221.0
12:13:08,23676.0,244.0,221.0
12:13:08,23676.0,244.0,221.0
12:13:08,23676.0,244.0,221.0
12:13:08,23686.0,245.0,223.0
12:13:08,23686.0,245.0,223.0
12:13:08,23686.0,245.0,223.0
12:13:08,23686.0,245.0,223.0
12:13:08,23675.0,245.0,224.0
12:13:08,23675.0,245.0,224.0
12:13:08,23675.0,245.0,224.0
12:13:08,23675.0,245.0,224.0
12:13:08,23613.0,245.0,223.0
12:13:08,23613.0,245.0,223.0
12:13:08,23613.0,245.0,223.0
12:13:08,23613.0,245.0,223.0
12:13:08,23640.0,245.0,223.0
12:13:08,23640.0,245.0,223.0
12:13:08,23640.0,245.0,223.0
12:13:08,23640.0,245.0,223.0
12:13:08,23700.0,245.0,222.0
12:13:08,23700.0,245.0,222.0
12:13:08,23700.0,245.0,222.0
12:13:08,23700.0,245.0,222.0
12:13:08,23826.0,244.0,222.0
12:13:08,23826.0,244.0,222.0
12:13:08,23826.0,244.0,222.0
12:13:08,23826.0,244.0,222.0
12:13:08,23740.0,246.0,223.0
12:13:08,23740.0,246.0,223.0
12:13:08,23740.0,246.0,223.0
12:13:08,23740.0,246.0,223.0
12:13:08,23818.0,244.0,223.0
12:13:08,23818.0,244.0,223.0
12:13:08,23818.0,244.0,223.0
12:13:08,23818.0,244.0,223.0
12:13:08,23837.0,244.0,222.0
12:13:08,23837.0,244.0,222.0
12:13:08,23837.0,244.0,222.0
12:13:08,23837.0,244.0,222.0
12:13:08,23989.0,245.0,224.0
12:13:08,23989.0,245.0,224.0
12:13:08,23989.0,245.0,224.0
12:13:08,23989.0,245.0,224.0
12:13:08,23816.0,245.0,223.0
12:13:08,23816.0,245.0,223.0
12:13:08,23816.0,245.0,223.0
12:13:08,23816.0,245.0,223.0
12:13:08,23663.0,244.0,223.0
12:13:08,23663.0,244.0,223.0
12:13:08,23663.0,244.0,223.0
12:13:08,23663.0,244.0,223.0
12:13:08,23557.0,245.0,224.0
12:13:08,23557.0,245.0,224.0
12:13:08,23557.0,245.0,224.0
12:13:08,23557.0,245.0,224.0
12:13:08,23563.0,245.0,223.0
12:13:08,23563.0,245.0,223.0
12:13:08,23563.0,245.0,223.0
12:13:08,23563.0,245.0,223.0
12:13:08,23390.0,244.0,223.0
12:13:08,23390.0,244.0,223.0
12:13:08,23390.0,244.0,223.0
12:13:08,23390.0,244.0,223.0
12:13:08,23459.0,246.0,222.0
12:13:08,23459.0,246.0,222.0
12:13:08,23459.0,246.0,222.0
12:13:08,23459.0,246.0,222.0
12:13:08,23661.0,245.0,223.0
12:13:08,23661.0,245.0,223.0
12:13:08,23661.0,245.0,223.0
12:13:08,23661.0,245.0,223.0
12:13:08,23745.0,244.0,223.0
12:13:08,23745.0,244.0,223.0
12:13:08,23745.0,244.0,223.0
12:13:08,23745.0,244.0,223.0
12:13:08,23554.0,243.0,223.0
12:13:08,23554.0,243.0,223.0
12:13:08,23554.0,243.0,223.0
12:13:08,23554.0,243.0,223.0
12:13:08,23659.0,246.0,224.0
12:13:08,23659.0,246.0,224.0
12:13:08,23659.0,246.0,224.0
12:13:08,23659.0,246.0,224.0
12:13:08,23581.0,243.0,223.0
12:13:08,23581.0,243.0,223.0
12:13:08,23581.0,243.0,223.0
12:13:08,23581.0,243.0,223.0
12:13:08,23497.0,244.0,223.0
12:13:08,23497.0,244.0,223.0
12:13:08,23497.0,244.0,223.0
12:13:08,23497.0,244.0,223.0
12:13:08,23596.0,245.0,223.0
12:13:08,23596.0,245.0,223.0
12:13:08,23596.0,245.0,223.0
12:13:08,23596.0,245.0,223.0
12:13:08,23602.0,244.0,223.0
12:13:08,23602.0,244.0,223.0
12:13:08,23602.0,244.0,223.0
12:13:08,23602.0,244.0,223.0
12:13:08,23670.0,243.0,223.0
12:13:08,23670.0,243.0,223.0
12:13:08,23670.0,243.0,223.0
12:13:08,23670.0,243.0,223.0
12:13:08,23552.0,247.0,224.0
12:13:08,23552.0,247.0,224.0
12:13:08,23552.0,247.0,224.0
12:13:08,23552.0,247.0,224.0
12:13:08,23505.0,244.0,224.0
12:13:08,23505.0,244.0,224.0
12:13:08,23505.0,244.0,224.0
12:13:08,23505.0,244.0,224.0
12:13:08,23471.0,245.0,222.0
12:13:08,23471.0,245.0,222.0
12:13:08,23471.0,245.0,222.0
12:13:08,23471.0,245.0,222.0
12:13:08,23393.0,245.0,222.0
12:13:08,23393.0,245.0,222.0
12:13:08,23393.0,245.0,222.0
12:13:08,23393.0,245.0,222.0
12:13:08,23319.0,245.0,222.0
12:13:08,23319.0,245.0,222.0
12:13:08,23319.0,245.0,222.0
12:13:08,23319.0,245.0,222.0
12:13:08,23533.0,245.0,224.0
12:13:08,23533.0,245.0,224.0
12:13:08,23533.0,245.0,224.0
12:13:08,23533.0,245.0,224.0
12:13:08,23877.0,245.0,223.0
12:13:08,23877.0,245.0,223.0
12:13:08,23877.0,245.0,223.0
12:13:08,23877.0,245.0,223.0
12:13:08,23263.0,244.0,223.0
12:13:08,23263.0,244.0,223.0
12:13:08,23263.0,244.0,223.0
12:13:08,23263.0,244.0,223.0
12:13:08,23439.0,245.0,223.0
12:13:08,23439.0,245.0,223.0
12:13:08,23439.0,245.0,223.0
12:13:08,23439.0,245.0,223.0
12:13:08,23318.0,244.0,223.0
12:13:08,23318.0,244.0,223.0
12:13:08,23318.0,244.0,223.0
12:13:08,23318.0,244.0,223.0
12:13:08,23402.0,244.0,224.0
12:13:08,23402.0,244.0,224.0
12:13:08,23402.0,244.0,224.0
12:13:08,23402.0,244.0,224.0
12:13:08,23546.0,245.0,223.0
12:13:08,23546.0,245.0,223.0
12:13:08,23546.0,245.0,223.0
12:13:08,23546.0,245.0,223.0
12:13:08,23466.0,244.0,223.0
12:13:08,23466.0,244.0,223.0
12:13:08,23466.0,244.0,223.0
12:13:08,23466.0,244.0,223.0
12:13:08,23465.0,244.0,224.0
12:13:08,23465.0,244.0,224.0
12:13:08,23465.0,244.0,224.0
12:13:08,23465.0,244.0,224.0
12:13:08,23342.0,245.0,224.0
12:13:08,23342.0,245.0,224.0
12:13:08,23342.0,245.0,224.0
12:13:08,23342.0,245.0,224.0
12:13:08,23404.0,246.0,224.0
12:13:08,23404.0,246.0,224.0
12:13:08,23404.0,246.0,224.0
12:13:09,23404.0,246.0,224.0
12:13:09,23498.0,245.0,225.0
12:13:09,23498.0,245.0,225.0
12:13:09,23498.0,245.0,225.0
12:13:09,23498.0,245.0,225.0
12:13:09,23522.0,246.0,225.0
12:13:09,23522.0,246.0,225.0
12:13:09,23522.0,246.0,225.0
12:13:09,23522.0,246.0,225.0
12:13:09,23450.0,246.0,222.0
12:13:09,23450.0,246.0,222.0
12:13:09,23450.0,246.0,222.0
12:13:09,23450.0,246.0,222.0
12:13:09,23541.0,245.0,223.0
12:13:09,23541.0,245.0,223.0
12:13:09,23541.0,245.0,223.0
12:13:09,23541.0,245.0,223.0
12:13:09,23359.0,247.0,223.0
12:13:09,23359.0,247.0,223.0
12:13:09,23359.0,247.0,223.0
12:13:09,23359.0,247.0,223.0
12:13:09,23315.0,245.0,224.0
12:13:09,23315.0,245.0,224.0
12:13:09,23315.0,245.0,224.0
12:13:09,23315.0,245.0,224.0
12:13:09,23393.0,245.0,224.0
12:13:09,23393.0,245.0,224.0
12:13:09,23393.0,245.0,224.0
12:13:09,23393.0,245.0,224.0
12:13:09,23224.0,244.0,225.0
12:13:09,23224.0,244.0,225.0
12:13:09,23224.0,244.0,225.0
12:13:09,23224.0,244.0,225.0
12:13:09,23230.0,245.0,223.0
12:13:09,23230.0,245.0,223.0
12:13:09,23230.0,245.0,223.0
12:13:09,23230.0,245.0,223.0
12:13:09,23245.0,245.0,223.0
12:13:09,23245.0,245.0,223.0
12:13:09,23245.0,245.0,223.0
12:13:09,23245.0,245.0,223.0
12:13:09,23184.0,246.0,224.0
12:13:09,23184.0,246.0,224.0
12:13:09,23184.0,246.0,224.0
12:13:09,23184.0,246.0,224.0
12:13:09,23209.0,245.0,224.0
12:13:09,23209.0,245.0,224.0
12:13:09,23209.0,245.0,224.0
12:13:09,23209.0,245.0,224.0
12:13:09,23248.0,246.0,223.0
12:13:09,23248.0,246.0,223.0
12:13:09,23248.0,246.0,223.0
12:13:09,23248.0,246.0,223.0
12:13:09,23142.0,246.0,225.0
12:13:09,23142.0,246.0,225.0
12:13:09,23142.0,246.0,225.0
12:13:09,23142.0,246.0,225.0
12:13:09,23123.0,245.0,224.0
12:13:09,23123.0,245.0,224.0
12:13:09,23123.0,245.0,224.0
12:13:09,23123.0,245.0,224.0
12:13:09,23207.0,244.0,224.0
12:13:09,23207.0,244.0,224.0
12:13:09,23207.0,244.0,224.0
12:13:09,23207.0,244.0,224.0
12:13:09,23271.0,247.0,224.0
12:13:09,23271.0,247.0,224.0
12:13:09,23271.0,247.0,224.0
12:13:09,23271.0,247.0,224.0
12:13:09,23265.0,246.0,223.0
12:13:09,23265.0,246.0,223.0
12:13:09,23265.0,246.0,223.0
12:13:09,23265.0,246.0,223.0
12:13:09,23222.0,245.0,224.0
12:13:09,23222.0,245.0,224.0
12:13:09,23222.0,245.0,224.0
12:13:09,23222.0,245.0,224.0
12:13:09,23092.0,244.0,224.0
12:13:09,23092.0,244.0,224.0
12:13:09,23092.0,244.0,224.0
12:13:09,23092.0,244.0,224.0
12:13:09,23006.0,245.0,224.0
12:13:09,23006.0,245.0,224.0
12:13:09,23006.0,245.0,224.0
12:13:09,23006.0,245.0,224.0
12:13:09,23140.0,245.0,223.0
12:13:09,23140.0,245.0,223.0
12:13:09,23140.0,245.0,223.0
12:13:09,23140.0,245.0,223.0
12:13:09,23029.0,246.0,224.0
12:13:09,23029.0,246.0,224.0
12:13:09,23029.0,246.0,224.0
12:13:09,23029.0,246.0,224.0
12:13:09,23467.0,246.0,224.0
12:13:09,23467.0,246.0,224.0
12:13:09,23467.0,246.0,224.0
12:13:09,23467.0,246.0,224.0
12:13:09,23107.0,245.0,223.0
12:13:09,23107.0,245.0,223.0
12:13:09,23107.0,245.0,223.0
12:13:09,23107.0,245.0,223.0
12:13:09,22821.0,246.0,224.0
12:13:09,22821.0,246.0,224.0
12:13:09,22821.0,246.0,224.0
12:13:09,22821.0,246.0,224.0
12:13:09,23084.0,245.0,224.0
12:13:09,23084.0,245.0,224.0
12:13:09,23084.0,245.0,224.0
12:13:09,23084.0,245.0,224.0
12:13:09,23059.0,246.0,223.0
12:13:09,23059.0,246.0,223.0
12:13:09,23059.0,246.0,223.0
12:13:09,23059.0,246.0,223.0
12:13:09,23070.0,246.0,225.0
12:13:09,23070.0,246.0,225.0
12:13:09,23070.0,246.0,225.0
12:13:09,23070.0,246.0,225.0
12:13:09,23130.0,246.0,225.0
12:13:09,23130.0,246.0,225.0
12:13:09,23130.0,246.0,225.0
12:13:09,23130.0,246.0,225.0
12:13:09,23076.0,247.0,223.0
12:13:09,23076.0,247.0,223.0
12:13:09,23076.0,247.0,223.0
12:13:09,23076.0,247.0,223.0
12:13:09,23074.0,246.0,225.0
12:13:09,23074.0,246.0,225.0
12:13:09,23074.0,246.0,225.0
12:13:09,23074.0,246.0,225.0
12:13:09,23206.0,246.0,225.0
12:13:09,23206.0,246.0,225.0
12:13:09,23206.0,246.0,225.0
12:13:09,23206.0,246.0,225.0
12:13:09,23171.0,247.0,223.0
12:13:09,23171.0,247.0,223.0
12:13:09,23171.0,247.0,223.0
12:13:09,23171.0,247.0,223.0
12:13:09,23038.0,247.0,226.0
12:13:09,23038.0,247.0,226.0
12:13:09,23038.0,247.0,226.0
12:13:09,23038.0,247.0,226.0
12:13:09,23115.0,246.0,225.0
12:13:09,23115.0,246.0,225.0
12:13:09,23115.0,246.0,225.0
12:13:09,23115.0,246.0,225.0
12:13:09,23305.0,245.0,224.0
12:13:09,23305.0,245.0,224.0
12:13:09,23305.0,245.0,224.0
12:13:09,23305.0,245.0,224.0
12:13:09,23065.0,247.0,224.0
12:13:09,23065.0,247.0,224.0
12:13:09,23065.0,247.0,224.0
12:13:09,23065.0,247.0,224.0
12:13:09,23138.0,246.0,224.0
12:13:09,23138.0,246.0,224.0
12:13:09,23138.0,246.0,224.0
12:13:09,23138.0,246.0,224.0
12:13:09,23077.0,245.0,225.0
12:13:09,23077.0,245.0,225.0
12:13:09,23077.0,245.0,225.0
12:13:09,23077.0,245.0,225.0
12:13:09,23004.0,247.0,225.0
12:13:09,23004.0,247.0,225.0
12:13:09,23004.0,247.0,225.0
12:13:09,23004.0,247.0,225.0
12:13:09,23016.0,247.0,225.0
12:13:09,23016.0,247.0,225.0
12:13:09,23016.0,247.0,225.0
12:13:09,23016.0,247.0,225.0
12:13:09,22958.0,246.0,225.0
12:13:09,22958.0,246.0,225.0
12:13:09,22958.0,246.0,225.0
12:13:09,22958.0,246.0,225.0
12:13:09,23062.0,247.0,224.0
12:13:09,23062.0,247.0,224.0
12:13:09,23062.0,247.0,224.0
12:13:09,23062.0,247.0,224.0
12:13:09,23069.0,246.0,224.0
12:13:09,23069.0,246.0,224.0
12:13:09,23069.0,246.0,224.0
12:13:09,23069.0,246.0,224.0
12:13:09,22943.0,246.0,225.0
12:13:09,22943.0,246.0,225.0
12:13:09,22943.0,246.0,225.0
12:13:09,22943.0,246.0,225.0
12:13:09,23052.0,246.0,223.0
12:13:09,23052.0,246.0,223.0
12:13:09,23052.0,246.0,223.0
12:13:09,23052.0,246.0,223.0
12:13:09,22989.0,246.0,224.0
12:13:09,22989.0,246.0,224.0
12:13:09,22989.0,246.0,224.0
12:13:09,22989.0,246.0,224.0
12:13:09,23001.0,245.0,224.0
12:13:09,23001.0,245.0,224.0
12:13:09,23001.0,245.0,224.0
12:13:09,23001.0,245.0,224.0
12:13:09,23081.0,245.0,224.0
12:13:09,23081.0,245.0,224.0
12:13:09,23081.0,245.0,224.0
12:13:09,23081.0,245.0,224.0
12:13:10,23108.0,246.0,223.0
12:13:10,23108.0,246.0,223.0
12:13:10,23108.0,246.0,223.0
12:13:10,23108.0,246.0,223.0
12:13:10,23233.0,245.0,224.0
12:13:10,23233.0,245.0,224.0
12:13:10,23233.0,245.0,224.0
12:13:10,23233.0,245.0,224.0
12:13:10,23086.0,246.0,224.0
12:13:10,23086.0,246.0,224.0
12:13:10,23086.0,246.0,224.0
12:13:10,23086.0,246.0,224.0
12:13:10,22994.0,245.0,224.0
12:13:10,22994.0,245.0,224.0
12:13:10,22994.0,245.0,224.0
12:13:10,22994.0,245.0,224.0
12:13:10,22927.0,245.0,224.0
12:13:10,22927.0,245.0,224.0
12:13:10,22927.0,245.0,224.0
12:13:10,22927.0,245.0,224.0
12:13:10,22976.0,247.0,224.0
12:13:10,22976.0,247.0,224.0
12:13:10,22976.0,247.0,224.0
12:13:10,22976.0,247.0,224.0
12:13:10,22982.0,246.0,224.0
12:13:10,22982.0,246.0,224.0
12:13:10,22982.0,246.0,224.0
12:13:10,22982.0,246.0,224.0
12:13:10,23363.0,244.0,224.0
12:13:10,23363.0,244.0,224.0
12:13:10,23363.0,244.0,224.0
12:13:10,23363.0,244.0,224.0
12:13:10,23153.0,245.0,222.0
12:13:10,23153.0,245.0,222.0
12:13:10,23153.0,245.0,222.0
12:13:10,23153.0,245.0,222.0
12:13:10,22903.0,245.0,224.0
12:13:10,22903.0,245.0,224.0
12:13:10,22903.0,245.0,224.0
12:13:10,22903.0,245.0,224.0
12:13:10,22918.0,245.0,224.0
12:13:10,22918.0,245.0,224.0
12:13:10,22918.0,245.0,224.0
12:13:10,22918.0,245.0,224.0
12:13:10,22918.0,245.0,225.0
12:13:10,22918.0,245.0,225.0
12:13:10,22918.0,245.0,225.0
12:13:10,22918.0,245.0,225.0
12:13:10,22879.0,247.0,224.0
12:13:10,22879.0,247.0,224.0
12:13:10,22879.0,247.0,224.0
12:13:10,22879.0,247.0,224.0
12:13:10,22937.0,244.0,222.0
12:13:10,22937.0,244.0,222.0
12:13:10,22937.0,244.0,222.0
12:13:10,22937.0,244.0,222.0
12:13:10,22940.0,245.0,224.0
12:13:10,22940.0,245.0,224.0
12:13:10,22940.0,245.0,224.0
12:13:10,22940.0,245.0,224.0
12:13:10,23080.0,245.0,223.0
12:13:10,23080.0,245.0,223.0
12:13:10,23080.0,245.0,223.0
12:13:10,23080.0,245.0,223.0
12:13:10,23128.0,245.0,224.0
12:13:10,23128.0,245.0,224.0
12:13:10,23128.0,245.0,224.0
12:13:10,23128.0,245.0,224.0
12:13:10,23121.0,245.0,224.0
12:13:10,23121.0,245.0,224.0
12:13:10,23121.0,245.0,224.0
12:13:10,23121.0,245.0,224.0
12:13:10,23145.0,245.0,224.0
12:13:10,23145.0,245.0,224.0
12:13:10,23145.0,245.0,224.0
12:13:10,23145.0,245.0,224.0
12:13:10,23195.0,245.0,224.0
12:13:10,23195.0,245.0,224.0
12:13:10,23195.0,245.0,224.0
12:13:10,23195.0,245.0,224.0
12:13:10,23238.0,245.0,223.0
12:13:10,23238.0,245.0,223.0
12:13:10,23238.0,245.0,223.0
12:13:10,23238.0,245.0,223.0
12:13:10,23260.0,245.0,223.0
12:13:10,23260.0,245.0,223.0
12:13:10,23260.0,245.0,223.0
12:13:10,23260.0,245.0,223.0
12:13:10,23139.0,244.0,223.0
12:13:10,23139.0,244.0,223.0
12:13:10,23139.0,244.0,223.0
12:13:10,23139.0,244.0,223.0
12:13:10,23056.0,245.0,222.0
12:13:10,23056.0,245.0,222.0
12:13:10,23056.0,245.0,222.0
12:13:10,23056.0,245.0,222.0
12:13:10,23182.0,246.0,223.0
12:13:10,23182.0,246.0,223.0
12:13:10,23182.0,246.0,223.0
12:13:10,23182.0,246.0,223.0
12:13:10,23063.0,244.0,223.0
12:13:10,23063.0,244.0,223.0
12:13:10,23063.0,244.0,223.0
12:13:10,23063.0,244.0,223.0
12:13:10,23090.0,246.0,223.0
12:13:10,23090.0,246.0,223.0
12:13:10,23090.0,246.0,223.0
12:13:10,23090.0,246.0,223.0
12:13:10,23138.0,244.0,223.0
12:13:10,23138.0,244.0,223.0
12:13:10,23138.0,244.0,223.0
12:13:10,23138.0,244.0,223.0
12:13:10,23144.0,244.0,223.0
12:13:10,23144.0,244.0,223.0
12:13:10,23144.0,244.0,223.0
12:13:10,23144.0,244.0,223.0
12:13:10,23103.0,245.0,222.0
12:13:10,23103.0,245.0,222.0
12:13:10,23103.0,245.0,222.0
12:13:10,23103.0,245.0,222.0
12:13:10,23140.0,246.0,224.0
12:13:10,23140.0,246.0,224.0
12:13:10,23140.0,246.0,224.0
12:13:10,23140.0,246.0,224.0
12:13:10,23204.0,244.0,224.0
12:13:10,23204.0,244.0,224.0
12:13:10,23204.0,244.0,224.0
12:13:10,23204.0,244.0,224.0
12:13:10,23179.0,245.0,223.0
12:13:10,23179.0,245.0,223.0
12:13:10,23179.0,245.0,223.0
12:13:10,23179.0,245.0,223.0
12:13:10,23252.0,245.0,223.0
12:13:10,23252.0,245.0,223.0
12:13:10,23252.0,245.0,223.0
12:13:10,23252.0,245.0,223.0
12:13:10,23297.0,245.0,223.0
12:13:10,23297.0,245.0,223.0
12:13:10,23297.0,245.0,223.0
12:13:10,23297.0,245.0,223.0
12:13:10,23361.0,245.0,223.0
12:13:10,23361.0,245.0,223.0
12:13:10,23361.0,245.0,223.0
12:13:10,23361.0,245.0,223.0
12:13:10,23417.0,245.0,223.0
12:13:10,23417.0,245.0,223.0
12:13:10,23417.0,245.0,223.0
12:13:10,23417.0,245.0,223.0
12:13:10,23140.0,245.0,223.0
12:13:10,23140.0,245.0,223.0
12:13:10,23140.0,245.0,223.0
12:13:10,23140.0,245.0,223.0
12:13:10,23187.0,244.0,223.0
12:13:10,23187.0,244.0,223.0
12:13:10,23187.0,244.0,223.0
12:13:10,23187.0,244.0,223.0
12:13:10,23171.0,245.0,225.0
12:13:10,23171.0,245.0,225.0
12:13:10,23171.0,245.0,225.0
12:13:10,23171.0,245.0,225.0
12:13:10,23333.0,246.0,223.0
12:13:10,23333.0,246.0,223.0
12:13:10,23333.0,246.0,223.0
12:13:10,23333.0,246.0,223.0
12:13:10,23481.0,243.0,225.0
12:13:10,23481.0,243.0,225.0
12:13:10,23481.0,243.0,225.0
12:13:10,23481.0,243.0,225.0
12:13:10,23348.0,244.0,222.0
12:13:10,23348.0,244.0,222.0
12:13:10,23348.0,244.0,222.0
12:13:10,23348.0,244.0,222.0
12:13:10,23069.0,244.0,223.0
12:13:10,23069.0,244.0,223.0
12:13:10,23069.0,244.0,223.0
12:13:10,23069.0,244.0,223.0
12:13:10,23197.0,245.0,224.0
12:13:10,23197.0,245.0,224.0
12:13:10,23197.0,245.0,224.0
12:13:10,23197.0,245.0,224.0
12:13:10,23239.0,246.0,222.0
12:13:10,23239.0,246.0,222.0
12:13:10,23239.0,246.0,222.0
12:13:10,23239.0,246.0,222.0
12:13:10,23344.0,245.0,224.0
12:13:10,23344.0,245.0,224.0
12:13:10,23344.0,245.0,224.0
12:13:10,23344.0,245.0,224.0
12:13:10,23216.0,244.0,224.0
12:13:10,23216.0,244.0,224.0
12:13:10,23216.0,244.0,224.0
12:13:10,23216.0,244.0,224.0
12:13:10,23431.0,246.0,224.0
12:13:10,23431.0,246.0,224.0
12:13:10,23431.0,246.0,224.0
12:13:10,23431.0,246.0,224.0
12:13:10,23454.0,245.0,223.0
12:13:10,23454.0,245.0,223.0
12:13:10,23454.0,245.0,223.0
12:13:10,23454.0,245.0,223.0
12:13:10,23442.0,244.0,223.0
12:13:11,23442.0,244.0,223.0
12:13:11,23442.0,244.0,223.0
12:13:11,23442.0,244.0,223.0
12:13:11,23460.0,245.0,223.0
12:13:11,23460.0,245.0,223.0
12:13:11,23460.0,245.0,223.0
12:13:11,23460.0,245.0,223.0
12:13:11,23406.0,244.0,223.0
12:13:11,23406.0,244.0,223.0
12:13:11,23406.0,244.0,223.0
12:13:11,23406.0,244.0,223.0
12:13:11,23599.0,246.0,223.0
12:13:11,23599.0,246.0,223.0
12:13:11,23599.0,246.0,223.0
12:13:11,23599.0,246.0,223.0
12:13:11,23536.0,244.0,224.0
12:13:11,23536.0,244.0,224.0
12:13:11,23536.0,244.0,224.0
12:13:11,23536.0,244.0,224.0
12:13:11,23375.0,245.0,224.0
12:13:11,23375.0,245.0,224.0
12:13:11,23375.0,245.0,224.0
12:13:11,23375.0,245.0,224.0
12:13:11,23547.0,245.0,223.0
12:13:11,23547.0,245.0,223.0
12:13:11,23547.0,245.0,223.0
12:13:11,23547.0,245.0,223.0
12:13:11,23395.0,245.0,223.0
12:13:11,23395.0,245.0,223.0
12:13:11,23395.0,245.0,223.0
12:13:11,23395.0,245.0,223.0
12:13:11,23430.0,246.0,224.0
12:13:11,23430.0,246.0,224.0
12:13:11,23430.0,246.0,224.0
12:13:11,23430.0,246.0,224.0
12:13:11,23458.0,245.0,224.0
12:13:11,23458.0,245.0,224.0
12:13:11,23458.0,245.0,224.0
12:13:11,23458.0,245.0,224.0
12:13:11,23434.0,244.0,224.0
12:13:11,23434.0,244.0,224.0
12:13:11,23434.0,244.0,224.0
12:13:11,23434.0,244.0,224.0
12:13:11,23331.0,246.0,224.0
12:13:11,23331.0,246.0,224.0
12:13:11,23331.0,246.0,224.0
12:13:11,23331.0,246.0,224.0
12:13:11,23466.0,245.0,224.0
12:13:11,23466.0,245.0,224.0
12:13:11,23466.0,245.0,224.0
12:13:11,23466.0,245.0,224.0
12:13:11,23441.0,245.0,225.0
12:13:11,23441.0,245.0,225.0
12:13:11,23441.0,245.0,225.0
12:13:11,23441.0,245.0,225.0
12:13:11,23486.0,245.0,223.0
12:13:11,23486.0,245.0,223.0
12:13:11,23486.0,245.0,223.0
12:13:11,23486.0,245.0,223.0
12:13:11,23588.0,245.0,224.0
12:13:11,23588.0,245.0,224.0
12:13:11,23588.0,245.0,224.0
12:13:11,23588.0,245.0,224.0
12:13:11,23531.0,245.0,224.0
12:13:11,23531.0,245.0,224.0
12:13:11,23531.0,245.0,224.0
12:13:11,23531.0,245.0,224.0
12:13:11,23588.0,246.0,224.0
12:13:11,23588.0,246.0,224.0
12:13:11,23588.0,246.0,224.0
12:13:11,23588.0,246.0,224.0
12:13:11,23608.0,244.0,225.0
12:13:11,23608.0,244.0,225.0
12:13:11,23608.0,244.0,225.0
12:13:11,23608.0,244.0,225.0
12:13:11,23740.0,247.0,224.0
12:13:11,23740.0,247.0,224.0
12:13:11,23740.0,247.0,224.0
12:13:11,23740.0,247.0,224.0
12:13:11,23674.0,246.0,224.0
12:13:11,23674.0,246.0,224.0
12:13:11,23674.0,246.0,224.0
12:13:11,23674.0,246.0,224.0
12:13:11,23517.0,246.0,225.0
12:13:11,23517.0,246.0,225.0
12:13:11,23517.0,246.0,225.0
12:13:11,23517.0,246.0,225.0
12:13:11,23500.0,245.0,225.0
12:13:11,23500.0,245.0,225.0
12:13:11,23500.0,245.0,225.0
12:13:11,23500.0,245.0,225.0
12:13:11,23561.0,247.0,224.0
12:13:11,23561.0,247.0,224.0
12:13:11,23561.0,247.0,224.0
12:13:11,23561.0,247.0,224.0
12:13:11,23608.0,245.0,224.0
12:13:11,23608.0,245.0,224.0
12:13:11,23608.0,245.0,224.0
12:13:11,23608.0,245.0,224.0
12:13:11,23744.0,246.0,224.0
12:13:11,23744.0,246.0,224.0
12:13:11,23744.0,246.0,224.0
12:13:11,23744.0,246.0,224.0
12:13:11,23751.0,244.0,224.0
12:13:11,23751.0,244.0,224.0
12:13:11,23751.0,244.0,224.0
12:13:11,23751.0,244.0,224.0
12:13:11,23371.0,246.0,225.0
12:13:11,23371.0,246.0,225.0
12:13:11,23371.0,246.0,225.0
12:13:11,23371.0,246.0,225.0
12:13:11,23741.0,247.0,224.0
12:13:11,23741.0,247.0,224.0
12:13:11,23741.0,247.0,224.0
12:13:11,23741.0,247.0,224.0
12:13:11,23509.0,245.0,224.0
12:13:11,23509.0,245.0,224.0
12:13:11,23509.0,245.0,224.0
12:13:11,23509.0,245.0,224.0
12:13:11,23680.0,246.0,223.0
12:13:11,23680.0,246.0,223.0
12:13:11,23680.0,246.0,223.0
12:13:11,23680.0,246.0,223.0
12:13:11,23624.0,246.0,225.0
12:13:11,23624.0,246.0,225.0
12:13:11,23624.0,246.0,225.0
12:13:11,23624.0,246.0,225.0
12:13:11,23561.0,245.0,224.0
12:13:11,23561.0,245.0,224.0
12:13:11,23561.0,245.0,224.0
12:13:11,23561.0,245.0,224.0
12:13:11,23676.0,246.0,225.0
12:13:11,23676.0,246.0,225.0
12:13:11,23676.0,246.0,225.0
12:13:11,23676.0,246.0,225.0
12:13:11,23725.0,246.0,224.0
12:13:11,23725.0,246.0,224.0
12:13:11,23725.0,246.0,224.0
12:13:11,23725.0,246.0,224.0
12:13:11,23810.0,247.0,224.0
12:13:11,23810.0,247.0,224.0
12:13:11,23810.0,247.0,224.0
12:13:11,23810.0,247.0,224.0
12:13:11,23662.0,246.0,224.0
12:13:11,23662.0,246.0,224.0
12:13:11,23662.0,246.0,224.0
12:13:11,23662.0,246.0,224.0
12:13:11,23670.0,246.0,224.0
12:13:11,23670.0,246.0,224.0
12:13:11,23670.0,246.0,224.0
12:13:11,23670.0,246.0,224.0
12:13:11,23864.0,245.0,224.0
12:13:11,23864.0,245.0,224.0
12:13:11,23864.0,245.0,224.0
12:13:11,23864.0,245.0,224.0
12:13:11,23796.0,247.0,223.0
12:13:11,23796.0,247.0,223.0
12:13:11,23796.0,247.0,223.0
12:13:11,23796.0,247.0,223.0
12:13:11,23788.0,247.0,224.0
12:13:11,23788.0,247.0,224.0
12:13:11,23788.0,247.0,224.0
12:13:11,23788.0,247.0,224.0
12:13:11,23825.0,245.0,224.0
12:13:11,23825.0,245.0,224.0
12:13:11,23825.0,245.0,224.0
12:13:11,23825.0,245.0,224.0
12:13:11,23658.0,246.0,225.0
12:13:11,23658.0,246.0,225.0
12:13:11,23658.0,246.0,225.0
12:13:11,23658.0,246.0,225.0
12:13:11,23905.0,246.0,224.0
12:13:11,23905.0,246.0,224.0
12:13:11,23905.0,246.0,224.0
12:13:11,23905.0,246.0,224.0
12:13:11,23681.0,246.0,224.0
12:13:11,23681.0,246.0,224.0
12:13:11,23681.0,246.0,224.0
12:13:11,23681.0,246.0,224.0
12:13:11,23737.0,247.0,224.0
12:13:11,23737.0,247.0,224.0
12:13:11,23737.0,247.0,224.0
12:13:11,23737.0,247.0,224.0
12:13:11,23701.0,246.0,224.0
12:13:11,23701.0,246.0,224.0
12:13:11,23701.0,246.0,224.0
12:13:11,23701.0,246.0,224.0
12:13:11,23686.0,245.0,224.0
12:13:11,23686.0,245.0,224.0
12:13:11,23686.0,245.0,224.0
12:13:11,23686.0,245.0,224.0
12:13:11,23813.0,246.0,223.0
12:13:11,23813.0,246.0,223.0
12:13:11,23813.0,246.0,223.0
12:13:11,23813.0,246.0,223.0
12:13:11,23783.0,247.0,224.0
12:13:11,23783.0,247.0,224.0
12:13:11,23783.0,247.0,224.0
12:13:11,23783.0,247.0,224.0
12:13:11,23810.0,245.0,225.0
12:13:11,23810.0,245.0,225.0
12:13:12,23810.0,245.0,225.0
12:13:12,23810.0,245.0,225.0
12:13:12,23752.0,246.0,225.0
12:13:12,23752.0,246.0,225.0
12:13:12,23752.0,246.0,225.0
12:13:12,23752.0,246.0,225.0
12:13:12,23882.0,247.0,224.0
12:13:12,23882.0,247.0,224.0
12:13:12,23882.0,247.0,224.0
12:13:12,23882.0,247.0,224.0
12:13:12,23897.0,245.0,223.0
12:13:12,23897.0,245.0,223.0
12:13:12,23897.0,245.0,223.0
12:13:12,23897.0,245.0,223.0
12:13:12,23756.0,246.0,224.0
12:13:12,23756.0,246.0,224.0
12:13:12,23756.0,246.0,224.0
12:13:12,23756.0,246.0,224.0
12:13:12,23682.0,246.0,225.0
12:13:12,23682.0,246.0,225.0
12:13:12,23682.0,246.0,225.0
12:13:12,23682.0,246.0,225.0
12:13:12,23661.0,247.0,223.0
12:13:12,23661.0,247.0,223.0
12:13:12,23661.0,247.0,223.0
12:13:12,23661.0,247.0,223.0
12:13:12,23661.0,244.0,224.0
12:13:12,23661.0,244.0,224.0
12:13:12,23661.0,244.0,224.0
12:13:12,23661.0,244.0,224.0
12:13:12,23666.0,245.0,225.0
12:13:12,23666.0,245.0,225.0
12:13:12,23666.0,245.0,225.0
12:13:12,23666.0,245.0,225.0
12:13:12,23977.0,246.0,223.0
12:13:12,23977.0,246.0,223.0
12:13:12,23977.0,246.0,223.0
12:13:12,23977.0,246.0,223.0
12:13:12,23797.0,246.0,224.0
12:13:12,23797.0,246.0,224.0
12:13:12,23797.0,246.0,224.0
12:13:12,23797.0,246.0,224.0
12:13:12,23709.0,246.0,224.0
12:13:12,23709.0,246.0,224.0
12:13:12,23709.0,246.0,224.0
12:13:12,23709.0,246.0,224.0
12:13:12,23671.0,246.0,224.0
12:13:12,23671.0,246.0,224.0
12:13:12,23671.0,246.0,224.0
12:13:12,23671.0,246.0,224.0
12:13:12,23753.0,246.0,224.0
12:13:12,23753.0,246.0,224.0
12:13:12,23753.0,246.0,224.0
12:13:12,23753.0,246.0,224.0
12:13:12,23708.0,246.0,224.0
12:13:12,23708.0,246.0,224.0
12:13:12,23708.0,246.0,224.0
12:13:12,23708.0,246.0,224.0
12:13:12,23743.0,246.0,223.0
12:13:12,23743.0,246.0,223.0
12:13:12,23743.0,246.0,223.0
12:13:12,23743.0,246.0,223.0
12:13:12,23705.0,246.0,224.0
12:13:12,23705.0,246.0,224.0
12:13:12,23705.0,246.0,224.0
12:13:12,23705.0,246.0,224.0
12:13:12,23739.0,245.0,224.0
12:13:12,23739.0,245.0,224.0
12:13:12,23739.0,245.0,224.0
12:13:12,23739.0,245.0,224.0
12:13:12,23769.0,247.0,223.0
12:13:12,23769.0,247.0,223.0
12:13:12,23769.0,247.0,223.0
12:13:12,23769.0,247.0,223.0
12:13:12,23748.0,245.0,224.0
12:13:12,23748.0,245.0,224.0
12:13:12,23748.0,245.0,224.0
12:13:12,23748.0,245.0,224.0
12:13:12,23842.0,245.0,223.0
12:13:12,23842.0,245.0,223.0
12:13:12,23842.0,245.0,223.0
12:13:12,23842.0,245.0,223.0
12:13:12,23848.0,244.0,223.0
12:13:12,23848.0,244.0,223.0
12:13:12,23848.0,244.0,223.0
12:13:12,23848.0,244.0,223.0
12:13:12,23932.0,246.0,224.0
12:13:12,23932.0,246.0,224.0
12:13:12,23932.0,246.0,224.0
12:13:12,23932.0,246.0,224.0
12:13:12,23803.0,246.0,223.0
12:13:12,23803.0,246.0,223.0
12:13:12,23803.0,246.0,223.0
12:13:12,23803.0,246.0,223.0
12:13:12,23830.0,245.0,223.0
12:13:12,23830.0,245.0,223.0
12:13:12,23830.0,245.0,223.0
12:13:12,23830.0,245.0,223.0
12:13:12,23667.0,245.0,223.0
12:13:12,23667.0,245.0,223.0
12:13:12,23667.0,245.0,223.0
12:13:12,23667.0,245.0,223.0
12:13:12,23559.0,246.0,224.0
12:13:12,23559.0,246.0,224.0
12:13:12,23559.0,246.0,224.0
12:13:12,23559.0,246.0,224.0
12:13:12,23653.0,245.0,224.0
12:13:12,23653.0,245.0,224.0
12:13:12,23653.0,245.0,224.0
12:13:12,23653.0,245.0,224.0
12:13:12,23544.0,246.0,223.0
12:13:12,23544.0,246.0,223.0
12:13:12,23544.0,246.0,223.0
12:13:12,23544.0,246.0,223.0
12:13:12,23700.0,245.0,224.0
12:13:12,23700.0,245.0,224.0
12:13:12,23700.0,245.0,224.0
12:13:12,23700.0,245.0,224.0
12:13:12,23716.0,246.0,225.0
12:13:12,23716.0,246.0,225.0
12:13:12,23716.0,246.0,225.0
12:13:12,23716.0,246.0,225.0
12:13:12,23635.0,245.0,223.0
12:13:12,23635.0,245.0,223.0
12:13:12,23635.0,245.0,223.0
12:13:12,23635.0,245.0,223.0
12:13:12,23446.0,246.0,224.0
12:13:12,23446.0,246.0,224.0
12:13:12,23446.0,246.0,224.0
12:13:12,23446.0,246.0,224.0
12:13:12,23587.0,245.0,224.0
12:13:12,23587.0,245.0,224.0
12:13:12,23587.0,245.0,224.0
12:13:12,23587.0,245.0,224.0
12:13:12,23615.0,244.0,223.0
12:13:12,23615.0,244.0,223.0
12:13:12,23615.0,244.0,223.0
12:13:12,23615.0,244.0,223.0
12:13:12,23686.0,245.0,224.0
12:13:12,23686.0,245.0,224.0
12:13:12,23686.0,245.0,224.0
12:13:12,23686.0,245.0,224.0
12:13:12,23757.0,244.0,223.0
12:13:12,23757.0,244.0,223.0
12:13:12,23757.0,244.0,223.0
12:13:12,23757.0,244.0,223.0
12:13:12,23709.0,244.0,224.0
12:13:12,23709.0,244.0,224.0
12:13:12,23709.0,244.0,224.0
12:13:12,23709.0,244.0,224.0
12:13:12,23653.0,245.0,224.0
12:13:12,23653.0,245.0,224.0
12:13:12,23653.0,245.0,224.0
12:13:12,23653.0,245.0,224.0
12:13:12,23631.0,246.0,224.0
12:13:12,23631.0,246.0,224.0
12:13:12,23631.0,246.0,224.0
12:13:12,23631.0,246.0,224.0
12:13:12,23617.0,244.0,223.0
12:13:12,23617.0,244.0,223.0
12:13:12,23617.0,244.0,223.0
12:13:12,23617.0,244.0,223.0
12:13:12,23493.0,244.0,224.0
12:13:12,23493.0,244.0,224.0
12:13:12,23493.0,244.0,224.0
12:13:12,23493.0,244.0,224.0
12:13:12,23606.0,245.0,222.0
12:13:12,23606.0,245.0,222.0
12:13:12,23606.0,245.0,222.0
12:13:12,23606.0,245.0,222.0
12:13:12,23963.0,244.0,224.0
12:13:12,23963.0,244.0,224.0
12:13:12,23963.0,244.0,224.0
12:13:12,23963.0,244.0,224.0
12:13:12,23637.0,245.0,222.0
12:13:12,23637.0,245.0,222.0
12:13:12,23637.0,245.0,222.0
12:13:12,23637.0,245.0,222.0
12:13:12,23448.0,245.0,224.0
12:13:12,23448.0,245.0,224.0
12:13:12,23448.0,245.0,224.0
12:13:12,23448.0,245.0,224.0
12:13:12,23404.0,245.0,223.0
12:13:12,23404.0,245.0,223.0
12:13:12,23404.0,245.0,223.0
12:13:12,23404.0,245.0,223.0
12:13:12,23494.0,246.0,223.0
12:13:12,23494.0,246.0,223.0
12:13:12,23494.0,246.0,223.0
12:13:12,23494.0,246.0,223.0
12:13:12,23522.0,245.0,223.0
12:13:12,23522.0,245.0,223.0
12:13:12,23522.0,245.0,223.0
12:13:12,23522.0,245.0,223.0
12:13:12,23549.0,246.0,224.0
12:13:12,23549.0,246.0,224.0
12:13:12,23549.0,246.0,224.0
12:13:12,23549.0,246.0,224.0
12:13:12,23520.0,244.0,222.0
12:13:12,23520.0,244.0,222.0
12:13:13,23520.0,244.0,222.0
12:13:13,23520.0,244.0,222.0
12:13:13,23474.0,246.0,223.0
12:13:13,23474.0,246.0,223.0
12:13:13,23474.0,246.0,223.0
12:13:13,23474.0,246.0,223.0
12:13:13,23479.0,245.0,223.0
12:13:13,23479.0,245.0,223.0
12:13:13,23479.0,245.0,223.0
12:13:13,23479.0,245.0,223.0
12:13:13,23562.0,245.0,224.0
12:13:13,23562.0,245.0,224.0
12:13:13,23562.0,245.0,224.0
12:13:13,23562.0,245.0,224.0
12:13:13,23570.0,246.0,223.0
12:13:13,23570.0,246.0,223.0
12:13:13,23570.0,246.0,223.0
12:13:13,23570.0,246.0,223.0
12:13:13,23491.0,245.0,224.0
12:13:13,23491.0,245.0,224.0
12:13:13,23491.0,245.0,224.0
12:13:13,23491.0,245.0,224.0
12:13:13,23618.0,244.0,223.0
12:13:13,23618.0,244.0,223.0
12:13:13,23618.0,244.0,223.0
12:13:13,23618.0,244.0,223.0
12:13:13,23633.0,245.0,223.0
12:13:13,23633.0,245.0,223.0
12:13:13,23633.0,245.0,223.0
12:13:13,23633.0,245.0,223.0
12:13:13,23434.0,245.0,223.0
12:13:13,23434.0,245.0,223.0
12:13:13,23434.0,245.0,223.0
12:13:13,23434.0,245.0,223.0
12:13:13,23448.0,244.0,223.0
12:13:13,23448.0,244.0,223.0
12:13:13,23448.0,244.0,223.0
12:13:13,23448.0,244.0,223.0
12:13:13,23497.0,245.0,225.0
12:13:13,23497.0,245.0,225.0
12:13:13,23497.0,245.0,225.0
12:13:13,23497.0,245.0,225.0
12:13:13,23310.0,244.0,223.0
12:13:13,23310.0,244.0,223.0
12:13:13,23310.0,244.0,223.0
12:13:13,23310.0,244.0,223.0
12:13:13,23329.0,245.0,224.0
12:13:13,23329.0,245.0,224.0
12:13:13,23329.0,245.0,224.0
12:13:13,23329.0,245.0,224.0
12:13:13,23264.0,245.0,223.0
12:13:13,23264.0,245.0,223.0
12:13:13,23264.0,245.0,223.0
12:13:13,23264.0,245.0,223.0
12:13:13,23394.0,245.0,224.0
12:13:13,23394.0,245.0,224.0
12:13:13,23394.0,245.0,224.0
12:13:13,23394.0,245.0,224.0
12:13:13,23326.0,245.0,225.0
12:13:13,23326.0,245.0,225.0
12:13:13,23326.0,245.0,225.0
12:13:13,23326.0,245.0,225.0
12:13:13,23409.0,246.0,224.0
12:13:13,23409.0,246.0,224.0
12:13:13,23409.0,246.0,224.0
12:13:13,23409.0,246.0,224.0
12:13:13,23242.0,245.0,224.0
12:13:13,23242.0,245.0,224.0
12:13:13,23242.0,245.0,224.0
12:13:13,23242.0,245.0,224.0
12:13:13,23150.0,244.0,223.0
12:13:13,23150.0,244.0,223.0
12:13:13,23150.0,244.0,223.0
12:13:13,23150.0,244.0,223.0
12:13:13,23314.0,244.0,223.0
12:13:13,23314.0,244.0,223.0
12:13:13,23314.0,244.0,223.0
12:13:13,23314.0,244.0,223.0
12:13:13,23435.0,245.0,223.0
12:13:13,23435.0,245.0,223.0
12:13:13,23435.0,245.0,223.0
12:13:13,23435.0,245.0,223.0
12:13:13,23391.0,246.0,224.0
12:13:13,23391.0,246.0,224.0
12:13:13,23391.0,246.0,224.0
12:13:13,23391.0,246.0,224.0
12:13:13,23359.0,246.0,223.0
12:13:13,23359.0,246.0,223.0
12:13:13,23359.0,246.0,223.0
12:13:13,23359.0,246.0,223.0
12:13:13,23265.0,245.0,224.0
12:13:13,23265.0,245.0,224.0
12:13:13,23265.0,245.0,224.0
12:13:13,23265.0,245.0,224.0
12:13:13,23205.0,245.0,223.0
12:13:13,23205.0,245.0,223.0
12:13:13,23205.0,245.0,223.0
12:13:13,23205.0,245.0,223.0
12:13:13,23148.0,244.0,223.0
12:13:13,23148.0,244.0,223.0
12:13:13,23148.0,244.0,223.0
12:13:13,23148.0,244.0,223.0
12:13:13,23145.0,246.0,223.0
12:13:13,23145.0,246.0,223.0
12:13:13,23145.0,246.0,223.0
12:13:13,23145.0,246.0,223.0
12:13:13,23508.0,245.0,223.0
12:13:13,23508.0,245.0,223.0
12:13:13,23508.0,245.0,223.0
12:13:13,23508.0,245.0,223.0
12:13:13,23248.0,246.0,223.0
12:13:13,23248.0,246.0,223.0
12:13:13,23248.0,246.0,223.0
12:13:13,23248.0,246.0,223.0
12:13:13,22988.0,246.0,224.0
12:13:13,22988.0,246.0,224.0
12:13:13,22988.0,246.0,224.0
12:13:13,22988.0,246.0,224.0
12:13:13,23101.0,246.0,224.0
12:13:13,23101.0,246.0,224.0
12:13:13,23101.0,246.0,224.0
12:13:13,23101.0,246.0,224.0
12:13:13,23127.0,245.0,223.0
12:13:13,23127.0,245.0,223.0
12:13:13,23127.0,245.0,223.0
12:13:13,23127.0,245.0,223.0
12:13:13,23053.0,246.0,224.0
12:13:13,23053.0,246.0,224.0
12:13:13,23053.0,246.0,224.0
12:13:13,23053.0,246.0,224.0
12:13:13,23007.0,244.0,225.0
12:13:13,23007.0,244.0,225.0
12:13:13,23007.0,244.0,225.0
12:13:13,23007.0,244.0,225.0
12:13:13,23165.0,246.0,225.0
12:13:13,23165.0,246.0,225.0
12:13:13,23165.0,246.0,225.0
12:13:13,23165.0,246.0,225.0
12:13:13,23166.0,247.0,223.0
12:13:13,23166.0,247.0,223.0
12:13:13,23166.0,247.0,223.0
12:13:13,23166.0,247.0,223.0
12:13:13,23192.0,244.0,225.0
12:13:13,23192.0,244.0,225.0
12:13:13,23192.0,244.0,225.0
12:13:13,23192.0,244.0,225.0
12:13:13,23235.0,245.0,225.0
12:13:13,23235.0,245.0,225.0
12:13:13,23235.0,245.0,225.0
12:13:13,23235.0,245.0,225.0
12:13:13,23228.0,245.0,223.0
12:13:13,23228.0,245.0,223.0
12:13:13,23228.0,245.0,223.0
12:13:13,23228.0,245.0,223.0
12:13:13,23285.0,246.0,224.0
12:13:13,23285.0,246.0,224.0
12:13:13,23285.0,246.0,224.0
12:13:13,23285.0,246.0,224.0
12:13:13,23361.0,247.0,224.0
12:13:13,23361.0,247.0,224.0
12:13:13,23361.0,247.0,224.0
12:13:13,23361.0,247.0,224.0
12:13:13,23316.0,245.0,224.0
12:13:13,23316.0,245.0,224.0
12:13:13,23316.0,245.0,224.0
12:13:13,23316.0,245.0,224.0
12:13:13,23190.0,246.0,224.0
12:13:13,23190.0,246.0,224.0
12:13:13,23190.0,246.0,224.0
12:13:13,23190.0,246.0,224.0
12:13:13,23085.0,246.0,225.0
12:13:13,23085.0,246.0,225.0
12:13:13,23085.0,246.0,225.0
12:13:13,23085.0,246.0,225.0
12:13:13,23017.0,246.0,224.0
12:13:13,23017.0,246.0,224.0
12:13:13,23017.0,246.0,224.0
12:13:13,23017.0,246.0,224.0
12:13:13,22943.0,246.0,224.0
12:13:13,22943.0,246.0,224.0
12:13:13,22943.0,246.0,224.0
12:13:13,22943.0,246.0,224.0
12:13:13,22891.0,247.0,224.0
12:13:13,22891.0,247.0,224.0
12:13:13,22891.0,247.0,224.0
12:13:13,22891.0,247.0,224.0
12:13:13,22997.0,245.0,224.0
12:13:13,22997.0,245.0,224.0
12:13:13,22997.0,245.0,224.0
12:13:13,22997.0,245.0,224.0
12:13:13,22919.0,246.0,225.0
12:13:13,22919.0,246.0,225.0
12:13:13,22919.0,246.0,225.0
12:13:13,22919.0,246.0,225.0
12:13:13,22987.0,246.0,224.0
12:13:13,22987.0,246.0,224.0
12:13:13,22987.0,246.0,224.0
12:13:13,22987.0,246.0,224.0
12:13:13,23002.0,245.0,225.0
12:13:13,23002.0,245.0,225.0
12:13:13,23002.0,245.0,225.0
12:13:14,23002.0,245.0,225.0
12:13:14,22906.0,245.0,225.0
12:13:14,22906.0,245.0,225.0
12:13:14,22906.0,245.0,225.0
12:13:14,22906.0,245.0,225.0
12:13:14,22997.0,246.0,223.0
12:13:14,22997.0,246.0,223.0
12:13:14,22997.0,246.0,223.0
12:13:14,22997.0,246.0,223.0
12:13:14,23029.0,245.0,224.0
12:13:14,23029.0,245.0,224.0
12:13:14,23029.0,245.0,224.0
12:13:14,23029.0,245.0,224.0
12:13:14,22982.0,246.0,225.0
12:13:14,22982.0,246.0,225.0
12:13:14,22982.0,246.0,225.0
12:13:14,22982.0,246.0,225.0
12:13:14,23120.0,246.0,223.0
12:13:14,23120.0,246.0,223.0
12:13:14,23120.0,246.0,223.0
12:13:14,23120.0,246.0,223.0
12:13:14,23040.0,245.0,224.0
12:13:14,23040.0,245.0,224.0
12:13:14,23040.0,245.0,224.0
12:13:14,23040.0,245.0,224.0
12:13:14,22923.0,245.0,225.0
12:13:14,22923.0,245.0,225.0
12:13:14,22923.0,245.0,225.0
12:13:14,22923.0,245.0,225.0
12:13:14,23031.0,247.0,225.0
12:13:14,23031.0,247.0,225.0
12:13:14,23031.0,247.0,225.0
12:13:14,23031.0,247.0,225.0
12:13:14,22958.0,245.0,224.0
12:13:14,22958.0,245.0,224.0
12:13:14,22958.0,245.0,224.0
12:13:14,22958.0,245.0,224.0
12:13:14,22912.0,246.0,223.0
12:13:14,22912.0,246.0,223.0
12:13:14,22912.0,246.0,223.0
12:13:14,22912.0,246.0,223.0
12:13:14,23664.0,246.0,224.0
12:13:14,23664.0,246.0,224.0
12:13:14,23664.0,246.0,224.0
12:13:14,23664.0,246.0,224.0
12:13:14,22873.0,245.0,224.0
12:13:14,22873.0,245.0,224.0
12:13:14,22873.0,245.0,224.0
12:13:14,22873.0,245.0,224.0
12:13:14,22860.0,246.0,224.0
12:13:14,22860.0,246.0,224.0
12:13:14,22860.0,246.0,224.0
12:13:14,22860.0,246.0,224.0
12:13:14,22962.0,246.0,224.0
12:13:14,22962.0,246.0,224.0
12:13:14,22962.0,246.0,224.0
12:13:14,22962.0,246.0,224.0
12:13:14,22847.0,246.0,224.0
12:13:14,22847.0,246.0,224.0
12:13:14,22847.0,246.0,224.0
12:13:14,22847.0,246.0,224.0
12:13:14,22805.0,246.0,223.0
12:13:14,22805.0,246.0,223.0
12:13:14,22805.0,246.0,223.0
12:13:14,22805.0,246.0,223.0
12:13:14,22984.0,246.0,225.0
12:13:14,22984.0,246.0,225.0
12:13:14,22984.0,246.0,225.0
12:13:14,22984.0,246.0,225.0
12:13:14,22937.0,245.0,224.0
12:13:14,22937.0,245.0,224.0
12:13:14,22937.0,245.0,224.0
12:13:14,22937.0,245.0,224.0
12:13:14,22988.0,247.0,224.0
12:13:14,22988.0,247.0,224.0
12:13:14,22988.0,247.0,224.0
12:13:14,22988.0,247.0,224.0
12:13:14,23068.0,245.0,224.0
12:13:14,23068.0,245.0,224.0
12:13:14,23068.0,245.0,224.0
12:13:14,23068.0,245.0,224.0
12:13:14,23007.0,246.0,225.0
12:13:14,23007.0,246.0,225.0
12:13:14,23007.0,246.0,225.0
12:13:14,23007.0,246.0,225.0
12:13:14,23025.0,245.0,223.0
12:13:14,23025.0,245.0,223.0
12:13:14,23025.0,245.0,223.0
12:13:14,23025.0,245.0,223.0
12:13:14,23175.0,246.0,225.0
12:13:14,23175.0,246.0,225.0
12:13:14,23175.0,246.0,225.0
12:13:14,23175.0,246.0,225.0
12:13:14,23245.0,246.0,224.0
12:13:14,23245.0,246.0,224.0
12:13:14,23245.0,246.0,224.0
12:13:14,23245.0,246.0,224.0
12:13:14,22943.0,248.0,223.0
12:13:14,22943.0,248.0,223.0
12:13:14,22943.0,248.0,223.0
12:13:14,22943.0,248.0,223.0
12:13:14,22873.0,246.0,224.0
12:13:14,22873.0,246.0,224.0
12:13:14,22873.0,246.0,224.0
12:13:14,22873.0,246.0,224.0
12:13:14,22942.0,245.0,223.0
12:13:14,22942.0,245.0,223.0
12:13:14,22942.0,245.0,223.0
12:13:14,22942.0,245.0,223.0
12:13:14,22874.0,245.0,223.0
12:13:14,22874.0,245.0,223.0
12:13:14,22874.0,245.0,223.0
12:13:14,22874.0,245.0,223.0
12:13:14,22932.0,245.0,223.0
12:13:14,22932.0,245.0,223.0
12:13:14,22932.0,245.0,223.0
12:13:14,22932.0,245.0,223.0
12:13:14,22882.0,245.0,223.0
12:13:14,22882.0,245.0,223.0
12:13:14,22882.0,245.0,223.0
12:13:14,22882.0,245.0,223.0
12:13:14,22941.0,245.0,222.0
12:13:14,22941.0,245.0,222.0
12:13:14,22941.0,245.0,222.0
12:13:14,22941.0,245.0,222.0
12:13:14,23059.0,245.0,223.0
12:13:14,23059.0,245.0,223.0
12:13:14,23059.0,245.0,223.0
