18:00:10,117.0,255.0,227.0
18:00:10,117.0,255.0,227.0
18:00:10,117.0,255.0,227.0
18:00:10,117.0,255.0,227.0
18:00:10,122.0,257.0,228.0
18:00:10,122.0,257.0,228.0
18:00:10,122.0,257.0,228.0
18:00:10,122.0,257.0,228.0
18:00:10,159.0,256.0,228.0
18:00:10,159.0,256.0,228.0
18:00:10,159.0,256.0,228.0
18:00:10,159.0,256.0,228.0
18:00:10,162.0,256.0,228.0
18:00:10,162.0,256.0,228.0
18:00:10,162.0,256.0,228.0
18:00:10,162.0,256.0,228.0
18:00:10,207.0,258.0,228.0
18:00:10,207.0,258.0,228.0
18:00:10,207.0,258.0,228.0
18:00:10,207.0,258.0,228.0
18:00:10,160.0,255.0,227.0
18:00:10,160.0,255.0,227.0
18:00:10,160.0,255.0,227.0
18:00:10,160.0,255.0,227.0
18:00:10,194.0,256.0,228.0
18:00:10,194.0,256.0,228.0
18:00:10,194.0,256.0,228.0
18:00:10,194.0,256.0,228.0
18:00:10,215.0,257.0,226.0
18:00:10,215.0,257.0,226.0
18:00:10,215.0,257.0,226.0
18:00:10,215.0,257.0,226.0
18:00:10,262.0,255.0,228.0
18:00:10,262.0,255.0,228.0
18:00:10,262.0,255.0,228.0
18:00:10,262.0,255.0,228.0
18:00:10,337.0,256.0,227.0
18:00:10,337.0,256.0,227.0
18:00:10,337.0,256.0,227.0
18:00:10,337.0,256.0,227.0
18:00:10,287.0,257.0,227.0
18:00:10,287.0,257.0,227.0
18:00:10,287.0,257.0,227.0
Mon Feb 02 18:00:10 IST 2026
TimeStamp,ECG,PPG
18:00:10,287.0,257.0,227.0
18:00:10,229.0,257.0,226.0
18:00:10,229.0,257.0,226.0
18:00:10,229.0,257.0,226.0
18:00:10,229.0,257.0,226.0
18:00:10,234.0,256.0,226.0
18:00:10,234.0,256.0,226.0
18:00:11,234.0,256.0,226.0
18:00:11,234.0,256.0,226.0
18:00:11,152.0,256.0,227.0
18:00:11,152.0,256.0,227.0
18:00:11,152.0,256.0,227.0
18:00:11,152.0,256.0,227.0
18:00:11,199.0,257.0,225.0
18:00:11,199.0,257.0,225.0
18:00:11,199.0,257.0,225.0
18:00:11,199.0,257.0,225.0
18:00:11,649.0,257.0,223.0
18:00:11,649.0,257.0,223.0
18:00:11,649.0,257.0,223.0
18:00:11,649.0,257.0,223.0
18:00:11,2026.0,256.0,223.0
18:00:11,2026.0,256.0,223.0
18:00:11,2026.0,256.0,223.0
18:00:11,2026.0,256.0,223.0
18:00:11,10.0,257.0,225.0
18:00:11,10.0,257.0,225.0
18:00:11,10.0,257.0,225.0
18:00:11,10.0,257.0,225.0
18:00:11,78.0,257.0,224.0
18:00:11,78.0,257.0,224.0
18:00:11,78.0,257.0,224.0
18:00:11,78.0,257.0,224.0
18:00:11,89.0,257.0,227.0
18:00:11,89.0,257.0,227.0
18:00:11,89.0,257.0,227.0
18:00:11,89.0,257.0,227.0
18:00:11,138.0,256.0,227.0
18:00:11,138.0,256.0,227.0
18:00:11,138.0,256.0,227.0
18:00:11,138.0,256.0,227.0
18:00:11,140.0,256.0,227.0
18:00:11,140.0,256.0,227.0
18:00:11,140.0,256.0,227.0
18:00:11,140.0,256.0,227.0
18:00:11,228.0,256.0,227.0
18:00:11,228.0,256.0,227.0
18:00:11,228.0,256.0,227.0
18:00:11,228.0,256.0,227.0
18:00:11,295.0,254.0,227.0
18:00:11,295.0,254.0,227.0
18:00:11,295.0,254.0,227.0
18:00:11,295.0,254.0,227.0
18:00:11,415.0,254.0,228.0
18:00:11,415.0,254.0,228.0
18:00:11,415.0,254.0,228.0
18:00:11,415.0,254.0,228.0
18:00:11,508.0,254.0,227.0
18:00:11,508.0,254.0,227.0
18:00:11,508.0,254.0,227.0
18:00:11,508.0,254.0,227.0
18:00:11,628.0,255.0,227.0
18:00:11,628.0,255.0,227.0
18:00:11,628.0,255.0,227.0
18:00:11,628.0,255.0,227.0
18:00:11,491.0,254.0,227.0
18:00:11,491.0,254.0,227.0
18:00:11,491.0,254.0,227.0
18:00:11,491.0,254.0,227.0
18:00:11,332.0,256.0,226.0
18:00:11,332.0,256.0,226.0
18:00:11,332.0,256.0,226.0
18:00:11,332.0,256.0,226.0
18:00:11,160.0,256.0,225.0
18:00:11,160.0,256.0,225.0
18:00:11,160.0,256.0,225.0
18:00:11,160.0,256.0,225.0
18:00:11,146.0,255.0,226.0
18:00:11,146.0,255.0,226.0
18:00:11,146.0,255.0,226.0
18:00:11,146.0,255.0,226.0
18:00:11,136.0,257.0,226.0
18:00:11,136.0,257.0,226.0
18:00:11,136.0,257.0,226.0
18:00:11,136.0,257.0,226.0
18:00:11,132.0,256.0,227.0
18:00:11,132.0,256.0,227.0
18:00:11,132.0,256.0,227.0
18:00:11,132.0,256.0,227.0
18:00:11,140.0,256.0,228.0
18:00:11,140.0,256.0,228.0
18:00:11,140.0,256.0,228.0
18:00:11,140.0,256.0,228.0
18:00:11,174.0,258.0,228.0
18:00:11,174.0,258.0,228.0
18:00:11,174.0,258.0,228.0
18:00:11,174.0,258.0,228.0
18:00:11,125.0,256.0,227.0
18:00:11,125.0,256.0,227.0
18:00:11,125.0,256.0,227.0
18:00:11,125.0,256.0,227.0
18:00:11,178.0,255.0,228.0
18:00:11,178.0,255.0,228.0
18:00:11,178.0,255.0,228.0
18:00:11,178.0,255.0,228.0
18:00:11,182.0,257.0,228.0
18:00:11,182.0,257.0,228.0
18:00:11,182.0,257.0,228.0
18:00:11,182.0,257.0,228.0
18:00:11,275.0,254.0,228.0
18:00:11,275.0,254.0,228.0
18:00:11,275.0,254.0,228.0
18:00:11,275.0,254.0,228.0
18:00:11,268.0,254.0,228.0
18:00:11,268.0,254.0,228.0
18:00:11,268.0,254.0,228.0
18:00:11,268.0,254.0,228.0
18:00:11,247.0,255.0,228.0
18:00:11,247.0,255.0,228.0
18:00:11,247.0,255.0,228.0
18:00:11,247.0,255.0,228.0
18:00:11,233.0,257.0,229.0
18:00:11,233.0,257.0,229.0
18:00:11,233.0,257.0,229.0
18:00:11,233.0,257.0,229.0
18:00:11,216.0,256.0,228.0
18:00:11,216.0,256.0,228.0
18:00:11,216.0,256.0,228.0
18:00:11,216.0,256.0,228.0
18:00:11,202.0,257.0,227.0
18:00:11,202.0,257.0,227.0
18:00:11,202.0,257.0,227.0
18:00:11,202.0,257.0,227.0
18:00:11,279.0,257.0,230.0
18:00:11,279.0,257.0,230.0
18:00:11,279.0,257.0,230.0
18:00:11,279.0,257.0,230.0
18:00:11,1927.0,256.0,228.0
18:00:11,1927.0,256.0,228.0
18:00:11,1927.0,256.0,228.0
18:00:11,1927.0,256.0,228.0
18:00:11,209.0,257.0,228.0
18:00:11,209.0,257.0,228.0
18:00:11,209.0,257.0,228.0
18:00:11,209.0,257.0,228.0
18:00:11,115.0,258.0,228.0
18:00:11,115.0,258.0,228.0
18:00:11,115.0,258.0,228.0
18:00:11,115.0,258.0,228.0
18:00:11,76.0,258.0,228.0
18:00:11,76.0,258.0,228.0
18:00:11,76.0,258.0,228.0
18:00:11,76.0,258.0,228.0
18:00:11,122.0,258.0,229.0
18:00:11,122.0,258.0,229.0
18:00:11,122.0,258.0,229.0
18:00:11,122.0,258.0,229.0
18:00:11,156.0,257.0,229.0
18:00:11,156.0,257.0,229.0
18:00:11,156.0,257.0,229.0
18:00:11,156.0,257.0,229.0
18:00:11,200.0,257.0,229.0
18:00:11,200.0,257.0,229.0
18:00:11,200.0,257.0,229.0
18:00:11,200.0,257.0,229.0
18:00:11,238.0,258.0,228.0
18:00:11,238.0,258.0,228.0
18:00:11,238.0,258.0,228.0
18:00:11,238.0,258.0,228.0
18:00:11,331.0,257.0,229.0
18:00:11,331.0,257.0,229.0
18:00:11,331.0,257.0,229.0
18:00:11,331.0,257.0,229.0
18:00:11,475.0,257.0,229.0
18:00:11,475.0,257.0,229.0
18:00:11,475.0,257.0,229.0
18:00:11,475.0,257.0,229.0
18:00:11,538.0,258.0,228.0
18:00:11,538.0,258.0,228.0
18:00:11,538.0,258.0,228.0
18:00:11,538.0,258.0,228.0
18:00:11,590.0,257.0,229.0
18:00:11,590.0,257.0,229.0
18:00:11,590.0,257.0,229.0
18:00:11,590.0,257.0,229.0
18:00:11,405.0,257.0,228.0
18:00:11,405.0,257.0,228.0
18:00:11,405.0,257.0,228.0
18:00:11,405.0,257.0,228.0
18:00:11,226.0,258.0,228.0
18:00:11,226.0,258.0,228.0
18:00:11,226.0,258.0,228.0
18:00:11,226.0,258.0,228.0
18:00:11,102.0,258.0,228.0
18:00:11,102.0,258.0,228.0
18:00:11,102.0,258.0,228.0
18:00:11,102.0,258.0,228.0
18:00:11,87.0,257.0,229.0
18:00:11,87.0,257.0,229.0
18:00:11,87.0,257.0,229.0
18:00:11,87.0,257.0,229.0
18:00:11,195.0,258.0,228.0
18:00:11,195.0,258.0,228.0
18:00:11,195.0,258.0,228.0
18:00:11,195.0,258.0,228.0
18:00:11,150.0,259.0,227.0
18:00:11,150.0,259.0,227.0
18:00:11,150.0,259.0,227.0
18:00:12,150.0,259.0,227.0
18:00:12,95.0,257.0,228.0
18:00:12,95.0,257.0,228.0
18:00:12,95.0,257.0,228.0
18:00:12,95.0,257.0,228.0
18:00:12,155.0,258.0,229.0
18:00:12,155.0,258.0,229.0
18:00:12,155.0,258.0,229.0
18:00:12,155.0,258.0,229.0
18:00:12,199.0,257.0,228.0
18:00:12,199.0,257.0,228.0
18:00:12,199.0,257.0,228.0
18:00:12,199.0,257.0,228.0
18:00:12,165.0,257.0,228.0
18:00:12,165.0,257.0,228.0
18:00:12,165.0,257.0,228.0
18:00:12,165.0,257.0,228.0
18:00:12,219.0,258.0,228.0
18:00:12,219.0,258.0,228.0
18:00:12,219.0,258.0,228.0
18:00:12,219.0,258.0,228.0
18:00:12,268.0,257.0,228.0
18:00:12,268.0,257.0,228.0
18:00:12,268.0,257.0,228.0
18:00:12,268.0,257.0,228.0
18:00:12,308.0,257.0,229.0
18:00:12,308.0,257.0,229.0
18:00:12,308.0,257.0,229.0
18:00:12,308.0,257.0,229.0
18:00:12,256.0,257.0,227.0
18:00:12,256.0,257.0,227.0
18:00:12,256.0,257.0,227.0
18:00:12,256.0,257.0,227.0
18:00:12,217.0,258.0,228.0
18:00:12,217.0,258.0,228.0
18:00:12,217.0,258.0,228.0
18:00:12,217.0,258.0,228.0
18:00:12,207.0,257.0,228.0
18:00:12,207.0,257.0,228.0
18:00:12,207.0,257.0,228.0
18:00:12,207.0,257.0,228.0
18:00:12,204.0,258.0,229.0
18:00:12,204.0,258.0,229.0
18:00:12,204.0,258.0,229.0
18:00:12,204.0,258.0,229.0
18:00:12,272.0,258.0,228.0
18:00:12,272.0,258.0,228.0
18:00:12,272.0,258.0,228.0
18:00:12,272.0,258.0,228.0
18:00:12,1798.0,257.0,228.0
18:00:12,1798.0,257.0,228.0
18:00:12,1798.0,257.0,228.0
18:00:12,1798.0,257.0,228.0
18:00:12,328.0,260.0,228.0
18:00:12,328.0,260.0,228.0
18:00:12,328.0,260.0,228.0
18:00:12,328.0,260.0,228.0
18:00:12,131.0,259.0,228.0
18:00:12,131.0,259.0,228.0
18:00:12,131.0,259.0,228.0
18:00:12,131.0,259.0,228.0
18:00:12,78.0,257.0,229.0
18:00:12,78.0,257.0,229.0
18:00:12,78.0,257.0,229.0
18:00:12,78.0,257.0,229.0
18:00:12,180.0,259.0,229.0
18:00:12,180.0,259.0,229.0
18:00:12,180.0,259.0,229.0
18:00:12,180.0,259.0,229.0
18:00:12,163.0,256.0,229.0
18:00:12,163.0,256.0,229.0
18:00:12,163.0,256.0,229.0
18:00:12,163.0,256.0,229.0
18:00:12,208.0,259.0,229.0
18:00:12,208.0,259.0,229.0
18:00:12,208.0,259.0,229.0
18:00:12,208.0,259.0,229.0
18:00:12,254.0,258.0,228.0
18:00:12,254.0,258.0,228.0
18:00:12,254.0,258.0,228.0
18:00:12,254.0,258.0,228.0
18:00:12,284.0,258.0,229.0
18:00:12,284.0,258.0,229.0
18:00:12,284.0,258.0,229.0
18:00:12,284.0,258.0,229.0
18:00:12,499.0,257.0,229.0
18:00:12,499.0,257.0,229.0
18:00:12,499.0,257.0,229.0
18:00:12,499.0,257.0,229.0
18:00:12,601.0,258.0,228.0
18:00:12,601.0,258.0,228.0
18:00:12,601.0,258.0,228.0
18:00:12,601.0,258.0,228.0
18:00:12,652.0,258.0,229.0
18:00:12,652.0,258.0,229.0
18:00:12,652.0,258.0,229.0
18:00:12,652.0,258.0,229.0
18:00:12,424.0,258.0,229.0
18:00:12,424.0,258.0,229.0
18:00:12,424.0,258.0,229.0
18:00:12,424.0,258.0,229.0
18:00:12,228.0,257.0,227.0
18:00:12,228.0,257.0,227.0
18:00:12,228.0,257.0,227.0
18:00:12,228.0,257.0,227.0
18:00:12,170.0,259.0,229.0
18:00:12,170.0,259.0,229.0
18:00:12,170.0,259.0,229.0
18:00:12,170.0,259.0,229.0
18:00:12,131.0,258.0,228.0
18:00:12,131.0,258.0,228.0
18:00:12,131.0,258.0,228.0
18:00:12,131.0,258.0,228.0
18:00:12,151.0,257.0,228.0
18:00:12,151.0,257.0,228.0
18:00:12,151.0,257.0,228.0
18:00:12,151.0,257.0,228.0
18:00:12,137.0,258.0,229.0
18:00:12,137.0,258.0,229.0
18:00:12,137.0,258.0,229.0
18:00:12,137.0,258.0,229.0
18:00:12,221.0,258.0,228.0
18:00:12,221.0,258.0,228.0
18:00:12,221.0,258.0,228.0
18:00:12,221.0,258.0,228.0
18:00:12,143.0,258.0,229.0
18:00:12,143.0,258.0,229.0
18:00:12,143.0,258.0,229.0
18:00:12,143.0,258.0,229.0
18:00:12,205.0,259.0,228.0
18:00:12,205.0,259.0,228.0
18:00:12,205.0,259.0,228.0
18:00:12,205.0,259.0,228.0
18:00:12,135.0,258.0,229.0
18:00:12,135.0,258.0,229.0
18:00:12,135.0,258.0,229.0
18:00:12,135.0,258.0,229.0
18:00:12,210.0,257.0,229.0
18:00:12,210.0,257.0,229.0
18:00:12,210.0,257.0,229.0
18:00:12,210.0,257.0,229.0
18:00:12,281.0,259.0,230.0
18:00:12,281.0,259.0,230.0
18:00:12,281.0,259.0,230.0
18:00:12,281.0,259.0,230.0
18:00:12,381.0,257.0,229.0
18:00:12,381.0,257.0,229.0
18:00:12,381.0,257.0,229.0
18:00:12,381.0,257.0,229.0
18:00:12,296.0,256.0,229.0
18:00:12,296.0,256.0,229.0
18:00:12,296.0,256.0,229.0
18:00:12,296.0,256.0,229.0
18:00:12,244.0,258.0,228.0
18:00:12,244.0,258.0,228.0
18:00:12,244.0,258.0,228.0
18:00:12,244.0,258.0,228.0
18:00:12,249.0,256.0,230.0
18:00:12,249.0,256.0,230.0
18:00:12,249.0,256.0,230.0
18:00:12,249.0,256.0,230.0
18:00:12,223.0,258.0,229.0
18:00:12,223.0,258.0,229.0
18:00:12,223.0,258.0,229.0
18:00:12,223.0,258.0,229.0
18:00:12,302.0,259.0,228.0
18:00:12,302.0,259.0,228.0
18:00:12,302.0,259.0,228.0
18:00:12,302.0,259.0,228.0
18:00:12,1855.0,258.0,229.0
18:00:12,1855.0,258.0,229.0
18:00:12,1855.0,258.0,229.0
18:00:12,1855.0,258.0,229.0
18:00:12,240.0,258.0,228.0
18:00:12,240.0,258.0,228.0
18:00:12,240.0,258.0,228.0
18:00:12,240.0,258.0,228.0
18:00:12,133.0,258.0,228.0
18:00:12,133.0,258.0,228.0
18:00:12,133.0,258.0,228.0
18:00:12,133.0,258.0,228.0
18:00:12,157.0,258.0,229.0
18:00:12,157.0,258.0,229.0
18:00:12,157.0,258.0,229.0
18:00:12,157.0,258.0,229.0
18:00:12,186.0,258.0,229.0
18:00:12,186.0,258.0,229.0
18:00:12,186.0,258.0,229.0
18:00:12,186.0,258.0,229.0
18:00:12,163.0,258.0,229.0
18:00:12,163.0,258.0,229.0
18:00:12,163.0,258.0,229.0
18:00:12,163.0,258.0,229.0
18:00:12,239.0,257.0,228.0
18:00:12,239.0,257.0,228.0
18:00:12,239.0,257.0,228.0
18:00:12,239.0,257.0,228.0
18:00:12,377.0,258.0,229.0
18:00:12,377.0,258.0,229.0
18:00:12,377.0,258.0,229.0
18:00:12,377.0,258.0,229.0
18:00:13,351.0,258.0,227.0
18:00:13,351.0,258.0,227.0
18:00:13,351.0,258.0,227.0
18:00:13,351.0,258.0,227.0
18:00:13,489.0,258.0,228.0
18:00:13,489.0,258.0,228.0
18:00:13,489.0,258.0,228.0
18:00:13,489.0,258.0,228.0
18:00:13,592.0,257.0,229.0
18:00:13,592.0,257.0,229.0
18:00:13,592.0,257.0,229.0
18:00:13,592.0,257.0,229.0
18:00:13,598.0,258.0,229.0
18:00:13,598.0,258.0,229.0
18:00:13,598.0,258.0,229.0
18:00:13,598.0,258.0,229.0
18:00:13,483.0,258.0,229.0
18:00:13,483.0,258.0,229.0
18:00:13,483.0,258.0,229.0
18:00:13,483.0,258.0,229.0
18:00:13,339.0,258.0,229.0
18:00:13,339.0,258.0,229.0
18:00:13,339.0,258.0,229.0
18:00:13,339.0,258.0,229.0
18:00:13,155.0,256.0,229.0
18:00:13,155.0,256.0,229.0
18:00:13,155.0,256.0,229.0
18:00:13,155.0,256.0,229.0
18:00:13,181.0,259.0,228.0
18:00:13,181.0,259.0,228.0
18:00:13,181.0,259.0,228.0
18:00:13,181.0,259.0,228.0
18:00:13,120.0,258.0,229.0
18:00:13,120.0,258.0,229.0
18:00:13,120.0,258.0,229.0
18:00:13,120.0,258.0,229.0
18:00:13,173.0,258.0,228.0
18:00:13,173.0,258.0,228.0
18:00:13,173.0,258.0,228.0
18:00:13,173.0,258.0,228.0
18:00:13,172.0,257.0,228.0
18:00:13,172.0,257.0,228.0
18:00:13,172.0,257.0,228.0
18:00:13,172.0,257.0,228.0
18:00:13,208.0,258.0,229.0
18:00:13,208.0,258.0,229.0
18:00:13,208.0,258.0,229.0
18:00:13,208.0,258.0,229.0
18:00:13,174.0,257.0,229.0
18:00:13,174.0,257.0,229.0
18:00:13,174.0,257.0,229.0
18:00:13,174.0,257.0,229.0
18:00:13,248.0,258.0,229.0
18:00:13,248.0,258.0,229.0
18:00:13,248.0,258.0,229.0
18:00:13,248.0,258.0,229.0
18:00:13,221.0,258.0,229.0
18:00:13,221.0,258.0,229.0
18:00:13,221.0,258.0,229.0
18:00:13,221.0,258.0,229.0
18:00:13,265.0,258.0,229.0
18:00:13,265.0,258.0,229.0
18:00:13,265.0,258.0,229.0
18:00:13,265.0,258.0,229.0
18:00:13,314.0,259.0,227.0
18:00:13,314.0,259.0,227.0
18:00:13,314.0,259.0,227.0
18:00:13,314.0,259.0,227.0
18:00:13,298.0,259.0,229.0
18:00:13,298.0,259.0,229.0
18:00:13,298.0,259.0,229.0
18:00:13,298.0,259.0,229.0
18:00:13,176.0,258.0,229.0
18:00:13,176.0,258.0,229.0
18:00:13,176.0,258.0,229.0
18:00:13,176.0,258.0,229.0
18:00:13,224.0,260.0,228.0
18:00:13,224.0,260.0,228.0
18:00:13,224.0,260.0,228.0
18:00:13,224.0,260.0,228.0
18:00:13,205.0,257.0,228.0
18:00:13,205.0,257.0,228.0
18:00:13,205.0,257.0,228.0
18:00:13,205.0,257.0,228.0
18:00:13,326.0,258.0,229.0
18:00:13,326.0,258.0,229.0
18:00:13,326.0,258.0,229.0
18:00:13,326.0,258.0,229.0
18:00:13,1874.0,258.0,229.0
18:00:13,1874.0,258.0,229.0
18:00:13,1874.0,258.0,229.0
18:00:13,1874.0,258.0,229.0
18:00:13,263.0,259.0,230.0
18:00:13,263.0,259.0,230.0
18:00:13,263.0,259.0,230.0
18:00:13,263.0,259.0,230.0
18:00:13,118.0,257.0,229.0
18:00:13,118.0,257.0,229.0
18:00:13,118.0,257.0,229.0
18:00:13,118.0,257.0,229.0
18:00:13,139.0,257.0,229.0
18:00:13,139.0,257.0,229.0
18:00:13,139.0,257.0,229.0
18:00:13,139.0,257.0,229.0
18:00:13,135.0,258.0,229.0
18:00:13,135.0,258.0,229.0
18:00:13,135.0,258.0,229.0
18:00:13,135.0,258.0,229.0
18:00:13,211.0,257.0,229.0
18:00:13,211.0,257.0,229.0
18:00:13,211.0,257.0,229.0
18:00:13,211.0,257.0,229.0
18:00:13,236.0,257.0,230.0
18:00:13,236.0,257.0,230.0
18:00:13,236.0,257.0,230.0
18:00:13,236.0,257.0,230.0
18:00:13,254.0,259.0,229.0
18:00:13,254.0,259.0,229.0
18:00:13,254.0,259.0,229.0
18:00:13,254.0,259.0,229.0
18:00:13,374.0,257.0,230.0
18:00:13,374.0,257.0,230.0
18:00:13,374.0,257.0,230.0
18:00:13,374.0,257.0,230.0
18:00:13,467.0,259.0,230.0
18:00:13,467.0,259.0,230.0
18:00:13,467.0,259.0,230.0
18:00:13,467.0,259.0,230.0
18:00:13,612.0,258.0,230.0
18:00:13,612.0,258.0,230.0
18:00:13,612.0,258.0,230.0
18:00:13,612.0,258.0,230.0
18:00:13,603.0,258.0,230.0
18:00:13,603.0,258.0,230.0
18:00:13,603.0,258.0,230.0
18:00:13,603.0,258.0,230.0
18:00:13,435.0,258.0,229.0
18:00:13,435.0,258.0,229.0
18:00:13,435.0,258.0,229.0
18:00:13,435.0,258.0,229.0
18:00:13,322.0,257.0,229.0
18:00:13,322.0,257.0,229.0
18:00:13,322.0,257.0,229.0
18:00:13,322.0,257.0,229.0
18:00:13,214.0,258.0,229.0
18:00:13,214.0,258.0,229.0
18:00:13,214.0,258.0,229.0
18:00:13,214.0,258.0,229.0
18:00:13,94.0,258.0,229.0
18:00:13,94.0,258.0,229.0
18:00:13,94.0,258.0,229.0
18:00:13,94.0,258.0,229.0
18:00:13,179.0,259.0,228.0
18:00:13,179.0,259.0,228.0
18:00:13,179.0,259.0,228.0
18:00:13,179.0,259.0,228.0
18:00:13,156.0,259.0,229.0
18:00:13,156.0,259.0,229.0
18:00:13,156.0,259.0,229.0
18:00:13,156.0,259.0,229.0
18:00:13,147.0,260.0,228.0
18:00:13,147.0,260.0,228.0
18:00:13,147.0,260.0,228.0
18:00:13,147.0,260.0,228.0
18:00:13,134.0,260.0,227.0
18:00:13,134.0,260.0,227.0
18:00:13,134.0,260.0,227.0
18:00:13,134.0,260.0,227.0
18:00:13,179.0,259.0,229.0
18:00:13,179.0,259.0,229.0
18:00:13,179.0,259.0,229.0
18:00:13,179.0,259.0,229.0
18:00:13,259.0,260.0,228.0
18:00:13,259.0,260.0,228.0
18:00:13,259.0,260.0,228.0
18:00:13,259.0,260.0,228.0
18:00:13,295.0,258.0,227.0
18:00:13,295.0,258.0,227.0
18:00:13,295.0,258.0,227.0
18:00:13,295.0,258.0,227.0
18:00:13,265.0,259.0,229.0
18:00:13,265.0,259.0,229.0
18:00:13,265.0,259.0,229.0
18:00:13,265.0,259.0,229.0
18:00:13,258.0,258.0,228.0
18:00:13,258.0,258.0,228.0
18:00:13,258.0,258.0,228.0
18:00:13,258.0,258.0,228.0
18:00:13,211.0,258.0,228.0
18:00:13,211.0,258.0,228.0
18:00:13,211.0,258.0,228.0
18:00:13,211.0,258.0,228.0
18:00:13,181.0,257.0,229.0
18:00:13,181.0,257.0,229.0
18:00:13,181.0,257.0,229.0
18:00:13,181.0,257.0,229.0
18:00:13,228.0,257.0,229.0
18:00:13,228.0,257.0,229.0
18:00:13,228.0,257.0,229.0
18:00:13,228.0,257.0,229.0
18:00:13,217.0,257.0,229.0
18:00:14,217.0,257.0,229.0
18:00:14,217.0,257.0,229.0
18:00:14,217.0,257.0,229.0
18:00:14,618.0,258.0,229.0
18:00:14,618.0,258.0,229.0
18:00:14,618.0,258.0,229.0
18:00:14,618.0,258.0,229.0
18:00:14,2149.0,259.0,228.0
18:00:14,2149.0,259.0,228.0
18:00:14,2149.0,259.0,228.0
18:00:14,2149.0,259.0,228.0
18:00:14,126.0,257.0,229.0
18:00:14,126.0,257.0,229.0
18:00:14,126.0,257.0,229.0
18:00:14,126.0,257.0,229.0
18:00:14,142.0,257.0,228.0
18:00:14,142.0,257.0,228.0
18:00:14,142.0,257.0,228.0
18:00:14,142.0,257.0,228.0
18:00:14,115.0,257.0,228.0
18:00:14,115.0,257.0,228.0
18:00:14,115.0,257.0,228.0
18:00:14,115.0,257.0,228.0
18:00:14,175.0,257.0,230.0
18:00:14,175.0,257.0,230.0
18:00:14,175.0,257.0,230.0
18:00:14,175.0,257.0,230.0
18:00:14,176.0,258.0,230.0
18:00:14,176.0,258.0,230.0
18:00:14,176.0,258.0,230.0
18:00:14,176.0,258.0,230.0
18:00:14,224.0,258.0,231.0
18:00:14,224.0,258.0,231.0
18:00:14,224.0,258.0,231.0
18:00:14,224.0,258.0,231.0
18:00:14,269.0,257.0,230.0
18:00:14,269.0,257.0,230.0
18:00:14,269.0,257.0,230.0
18:00:14,269.0,257.0,230.0
18:00:14,424.0,258.0,229.0
18:00:14,424.0,258.0,229.0
18:00:14,424.0,258.0,229.0
18:00:14,424.0,258.0,229.0
18:00:14,511.0,257.0,230.0
18:00:14,511.0,257.0,230.0
18:00:14,511.0,257.0,230.0
18:00:14,511.0,257.0,230.0
18:00:14,582.0,257.0,229.0
18:00:14,582.0,257.0,229.0
18:00:14,582.0,257.0,229.0
18:00:14,582.0,257.0,229.0
18:00:14,524.0,258.0,229.0
18:00:14,524.0,258.0,229.0
18:00:14,524.0,258.0,229.0
18:00:14,524.0,258.0,229.0
18:00:14,352.0,259.0,228.0
18:00:14,352.0,259.0,228.0
18:00:14,352.0,259.0,228.0
18:00:14,352.0,259.0,228.0
18:00:14,235.0,259.0,228.0
18:00:14,235.0,259.0,228.0
18:00:14,235.0,259.0,228.0
18:00:14,235.0,259.0,228.0
18:00:14,107.0,260.0,228.0
18:00:14,107.0,260.0,228.0
18:00:14,107.0,260.0,228.0
18:00:14,107.0,260.0,228.0
18:00:14,128.0,259.0,227.0
18:00:14,128.0,259.0,227.0
18:00:14,128.0,259.0,227.0
18:00:14,128.0,259.0,227.0
18:00:14,162.0,258.0,228.0
18:00:14,162.0,258.0,228.0
18:00:14,162.0,258.0,228.0
18:00:14,162.0,258.0,228.0
18:00:14,171.0,261.0,227.0
18:00:14,171.0,261.0,227.0
18:00:14,171.0,261.0,227.0
18:00:14,171.0,261.0,227.0
18:00:14,169.0,259.0,228.0
18:00:14,169.0,259.0,228.0
18:00:14,169.0,259.0,228.0
18:00:14,169.0,259.0,228.0
18:00:14,174.0,259.0,228.0
18:00:14,174.0,259.0,228.0
18:00:14,174.0,259.0,228.0
18:00:14,174.0,259.0,228.0
18:00:14,138.0,258.0,227.0
18:00:14,138.0,258.0,227.0
18:00:14,138.0,258.0,227.0
18:00:14,138.0,258.0,227.0
18:00:14,217.0,258.0,228.0
18:00:14,217.0,258.0,228.0
18:00:14,217.0,258.0,228.0
18:00:14,217.0,258.0,228.0
18:00:14,243.0,257.0,229.0
18:00:14,243.0,257.0,229.0
18:00:14,243.0,257.0,229.0
18:00:14,243.0,257.0,229.0
18:00:14,358.0,258.0,227.0
18:00:14,358.0,258.0,227.0
18:00:14,358.0,258.0,227.0
18:00:14,358.0,258.0,227.0
18:00:14,211.0,258.0,228.0
18:00:14,211.0,258.0,228.0
18:00:14,211.0,258.0,228.0
18:00:14,211.0,258.0,228.0
18:00:14,220.0,257.0,229.0
18:00:14,220.0,257.0,229.0
18:00:14,220.0,257.0,229.0
18:00:14,220.0,257.0,229.0
18:00:14,227.0,258.0,227.0
18:00:14,227.0,258.0,227.0
18:00:14,227.0,258.0,227.0
18:00:14,227.0,258.0,227.0
18:00:14,238.0,257.0,228.0
18:00:14,238.0,257.0,228.0
18:00:14,238.0,257.0,228.0
18:00:14,238.0,257.0,228.0
18:00:14,286.0,256.0,227.0
18:00:14,286.0,256.0,227.0
18:00:14,286.0,256.0,227.0
18:00:14,286.0,256.0,227.0
18:00:14,1786.0,257.0,228.0
18:00:14,1786.0,257.0,228.0
18:00:14,1786.0,257.0,228.0
18:00:14,1786.0,257.0,228.0
18:00:14,299.0,257.0,227.0
18:00:14,299.0,257.0,227.0
18:00:14,299.0,257.0,227.0
18:00:14,299.0,257.0,227.0
18:00:14,98.0,256.0,228.0
18:00:14,98.0,256.0,228.0
18:00:14,98.0,256.0,228.0
18:00:14,98.0,256.0,228.0
18:00:14,108.0,257.0,228.0
18:00:14,108.0,257.0,228.0
18:00:14,108.0,257.0,228.0
18:00:14,108.0,257.0,228.0
18:00:14,137.0,256.0,228.0
18:00:14,137.0,256.0,228.0
18:00:14,137.0,256.0,228.0
18:00:14,137.0,256.0,228.0
18:00:14,190.0,256.0,228.0
18:00:14,190.0,256.0,228.0
18:00:14,190.0,256.0,228.0
18:00:14,190.0,256.0,228.0
18:00:14,190.0,257.0,227.0
18:00:14,190.0,257.0,227.0
18:00:14,190.0,257.0,227.0
18:00:14,190.0,257.0,227.0
18:00:14,246.0,258.0,229.0
18:00:14,246.0,258.0,229.0
18:00:14,246.0,258.0,229.0
18:00:14,246.0,258.0,229.0
18:00:14,375.0,256.0,229.0
18:00:14,375.0,256.0,229.0
18:00:14,375.0,256.0,229.0
18:00:14,375.0,256.0,229.0
18:00:14,426.0,258.0,229.0
18:00:14,426.0,258.0,229.0
18:00:14,426.0,258.0,229.0
18:00:14,426.0,258.0,229.0
18:00:14,592.0,258.0,229.0
18:00:14,592.0,258.0,229.0
18:00:14,592.0,258.0,229.0
18:00:14,592.0,258.0,229.0
18:00:14,611.0,257.0,228.0
18:00:14,611.0,257.0,228.0
18:00:14,611.0,257.0,228.0
18:00:14,611.0,257.0,228.0
18:00:14,428.0,258.0,228.0
18:00:14,428.0,258.0,228.0
18:00:14,428.0,258.0,228.0
18:00:14,428.0,258.0,228.0
18:00:14,279.0,257.0,227.0
18:00:14,279.0,257.0,227.0
18:00:14,279.0,257.0,227.0
18:00:14,279.0,257.0,227.0
18:00:14,176.0,257.0,227.0
18:00:14,176.0,257.0,227.0
18:00:14,176.0,257.0,227.0
18:00:14,176.0,257.0,227.0
18:00:14,128.0,257.0,228.0
18:00:14,128.0,257.0,228.0
18:00:14,128.0,257.0,228.0
18:00:14,128.0,257.0,228.0
18:00:14,150.0,257.0,227.0
18:00:14,150.0,257.0,227.0
18:00:14,150.0,257.0,227.0
18:00:14,150.0,257.0,227.0
18:00:14,147.0,258.0,228.0
18:00:14,147.0,258.0,228.0
18:00:14,147.0,258.0,228.0
18:00:14,147.0,258.0,228.0
18:00:14,144.0,258.0,227.0
18:00:14,144.0,258.0,227.0
18:00:14,144.0,258.0,227.0
18:00:14,144.0,258.0,227.0
18:00:14,122.0,258.0,228.0
18:00:15,122.0,258.0,228.0
18:00:15,122.0,258.0,228.0
18:00:15,122.0,258.0,228.0
18:00:15,174.0,258.0,228.0
18:00:15,174.0,258.0,228.0
18:00:15,174.0,258.0,228.0
18:00:15,174.0,258.0,228.0
18:00:15,241.0,259.0,227.0
18:00:15,241.0,259.0,227.0
18:00:15,241.0,259.0,227.0
18:00:15,241.0,259.0,227.0
18:00:15,275.0,256.0,228.0
18:00:15,275.0,256.0,228.0
18:00:15,275.0,256.0,228.0
18:00:15,275.0,256.0,228.0
18:00:15,323.0,257.0,228.0
18:00:15,323.0,257.0,228.0
18:00:15,323.0,257.0,228.0
18:00:15,323.0,257.0,228.0
18:00:15,273.0,257.0,226.0
18:00:15,273.0,257.0,226.0
18:00:15,273.0,257.0,226.0
18:00:15,273.0,257.0,226.0
18:00:15,228.0,255.0,228.0
18:00:15,228.0,255.0,228.0
18:00:15,228.0,255.0,228.0
18:00:15,228.0,255.0,228.0
18:00:15,247.0,257.0,228.0
18:00:15,247.0,257.0,228.0
18:00:15,247.0,257.0,228.0
18:00:15,247.0,257.0,228.0
18:00:15,247.0,258.0,226.0
18:00:15,247.0,258.0,226.0
18:00:15,247.0,258.0,226.0
18:00:15,247.0,258.0,226.0
18:00:15,273.0,256.0,228.0
18:00:15,273.0,256.0,228.0
18:00:15,273.0,256.0,228.0
18:00:15,273.0,256.0,228.0
18:00:15,1657.0,256.0,227.0
18:00:15,1657.0,256.0,227.0
18:00:15,1657.0,256.0,227.0
18:00:15,1657.0,256.0,227.0
18:00:15,517.0,257.0,226.0
18:00:15,517.0,257.0,226.0
18:00:15,517.0,257.0,226.0
18:00:15,517.0,257.0,226.0
18:00:15,118.0,256.0,227.0
18:00:15,118.0,256.0,227.0
18:00:15,118.0,256.0,227.0
18:00:15,118.0,256.0,227.0
18:00:15,134.0,256.0,228.0
18:00:15,134.0,256.0,228.0
18:00:15,134.0,256.0,228.0
18:00:15,134.0,256.0,228.0
18:00:15,134.0,257.0,227.0
18:00:15,134.0,257.0,227.0
18:00:15,134.0,257.0,227.0
18:00:15,134.0,257.0,227.0
18:00:15,171.0,256.0,228.0
18:00:15,171.0,256.0,228.0
18:00:15,171.0,256.0,228.0
18:00:15,171.0,256.0,228.0
18:00:15,241.0,256.0,228.0
18:00:15,241.0,256.0,228.0
18:00:15,241.0,256.0,228.0
18:00:15,241.0,256.0,228.0
18:00:15,266.0,256.0,227.0
18:00:15,266.0,256.0,227.0
18:00:15,266.0,256.0,227.0
18:00:15,266.0,256.0,227.0
18:00:15,350.0,256.0,228.0
18:00:15,350.0,256.0,228.0
18:00:15,350.0,256.0,228.0
18:00:15,350.0,256.0,228.0
18:00:15,454.0,256.0,227.0
18:00:15,454.0,256.0,227.0
18:00:15,454.0,256.0,227.0
18:00:15,454.0,256.0,227.0
18:00:15,619.0,257.0,227.0
18:00:15,619.0,257.0,227.0
18:00:15,619.0,257.0,227.0
18:00:15,619.0,257.0,227.0
18:00:15,651.0,258.0,228.0
18:00:15,651.0,258.0,228.0
18:00:15,651.0,258.0,228.0
18:00:15,651.0,258.0,228.0
18:00:15,525.0,256.0,227.0
18:00:15,525.0,256.0,227.0
18:00:15,525.0,256.0,227.0
18:00:15,525.0,256.0,227.0
18:00:15,259.0,257.0,228.0
18:00:15,259.0,257.0,228.0
18:00:15,259.0,257.0,228.0
18:00:15,259.0,257.0,228.0
18:00:15,170.0,257.0,226.0
18:00:15,170.0,257.0,226.0
18:00:15,170.0,257.0,226.0
18:00:15,170.0,257.0,226.0
18:00:15,159.0,256.0,227.0
18:00:15,159.0,256.0,227.0
18:00:15,159.0,256.0,227.0
18:00:15,159.0,256.0,227.0
18:00:15,135.0,256.0,228.0
18:00:15,135.0,256.0,228.0
18:00:15,135.0,256.0,228.0
18:00:15,135.0,256.0,228.0
18:00:15,173.0,258.0,227.0
18:00:15,173.0,258.0,227.0
18:00:15,173.0,258.0,227.0
18:00:15,173.0,258.0,227.0
18:00:15,123.0,256.0,227.0
18:00:15,123.0,256.0,227.0
18:00:15,123.0,256.0,227.0
18:00:15,123.0,256.0,227.0
18:00:15,220.0,255.0,226.0
18:00:15,220.0,255.0,226.0
18:00:15,220.0,255.0,226.0
18:00:15,220.0,255.0,226.0
18:00:15,165.0,255.0,226.0
18:00:15,165.0,255.0,226.0
18:00:15,165.0,255.0,226.0
18:00:15,165.0,255.0,226.0
18:00:15,204.0,257.0,227.0
18:00:15,204.0,257.0,227.0
18:00:15,204.0,257.0,227.0
18:00:15,204.0,257.0,227.0
18:00:15,240.0,257.0,227.0
18:00:15,240.0,257.0,227.0
18:00:15,240.0,257.0,227.0
18:00:15,240.0,257.0,227.0
18:00:15,282.0,256.0,227.0
18:00:15,282.0,256.0,227.0
18:00:15,282.0,256.0,227.0
18:00:15,282.0,256.0,227.0
18:00:15,416.0,257.0,227.0
18:00:15,416.0,257.0,227.0
18:00:15,416.0,257.0,227.0
18:00:15,416.0,257.0,227.0
18:00:15,248.0,257.0,227.0
18:00:15,248.0,257.0,227.0
18:00:15,248.0,257.0,227.0
18:00:15,248.0,257.0,227.0
18:00:15,202.0,256.0,228.0
18:00:15,202.0,256.0,228.0
18:00:15,202.0,256.0,228.0
18:00:15,202.0,256.0,228.0
18:00:15,244.0,257.0,226.0
18:00:15,244.0,257.0,226.0
18:00:15,244.0,257.0,226.0
18:00:15,244.0,257.0,226.0
18:00:15,305.0,257.0,228.0
18:00:15,305.0,257.0,228.0
18:00:15,305.0,257.0,228.0
18:00:15,305.0,257.0,228.0
18:00:15,343.0,256.0,228.0
18:00:15,343.0,256.0,228.0
18:00:15,343.0,256.0,228.0
18:00:15,343.0,256.0,228.0
18:00:15,2260.0,257.0,226.0
18:00:15,2260.0,257.0,226.0
18:00:15,2260.0,257.0,226.0
18:00:15,2260.0,257.0,226.0
18:00:15,178.0,256.0,227.0
18:00:15,178.0,256.0,227.0
18:00:15,178.0,256.0,227.0
18:00:15,178.0,256.0,227.0
18:00:15,120.0,257.0,227.0
18:00:15,120.0,257.0,227.0
18:00:15,120.0,257.0,227.0
18:00:15,120.0,257.0,227.0
18:00:15,168.0,257.0,226.0
18:00:15,168.0,257.0,226.0
18:00:15,168.0,257.0,226.0
18:00:15,168.0,257.0,226.0
18:00:15,117.0,257.0,228.0
18:00:15,117.0,257.0,228.0
18:00:15,117.0,257.0,228.0
18:00:15,117.0,257.0,228.0
18:00:15,131.0,258.0,228.0
18:00:15,131.0,258.0,228.0
18:00:15,131.0,258.0,228.0
18:00:15,131.0,258.0,228.0
18:00:15,262.0,256.0,227.0
18:00:15,262.0,256.0,227.0
18:00:15,262.0,256.0,227.0
18:00:15,262.0,256.0,227.0
18:00:15,291.0,257.0,228.0
18:00:15,291.0,257.0,228.0
18:00:15,291.0,257.0,228.0
18:00:15,291.0,257.0,228.0
18:00:15,419.0,257.0,227.0
18:00:15,419.0,257.0,227.0
18:00:15,419.0,257.0,227.0
18:00:15,419.0,257.0,227.0
18:00:15,496.0,256.0,227.0
18:00:15,496.0,256.0,227.0
18:00:15,496.0,256.0,227.0
18:00:15,496.0,256.0,227.0
18:00:15,622.0,257.0,227.0
18:00:15,622.0,257.0,227.0
18:00:16,622.0,257.0,227.0
18:00:16,622.0,257.0,227.0
18:00:16,594.0,256.0,227.0
18:00:16,594.0,256.0,227.0
18:00:16,594.0,256.0,227.0
18:00:16,594.0,256.0,227.0
18:00:16,479.0,255.0,227.0
18:00:16,479.0,255.0,227.0
18:00:16,479.0,255.0,227.0
18:00:16,479.0,255.0,227.0
18:00:16,253.0,257.0,226.0
18:00:16,253.0,257.0,226.0
18:00:16,253.0,257.0,226.0
18:00:16,253.0,257.0,226.0
18:00:16,179.0,256.0,227.0
18:00:16,179.0,256.0,227.0
18:00:16,179.0,256.0,227.0
18:00:16,179.0,256.0,227.0
18:00:16,186.0,256.0,228.0
18:00:16,186.0,256.0,228.0
18:00:16,186.0,256.0,228.0
18:00:16,186.0,256.0,228.0
18:00:16,175.0,257.0,226.0
18:00:16,175.0,257.0,226.0
18:00:16,175.0,257.0,226.0
18:00:16,175.0,257.0,226.0
18:00:16,198.0,257.0,227.0
18:00:16,198.0,257.0,227.0
18:00:16,198.0,257.0,227.0
18:00:16,198.0,257.0,227.0
18:00:16,178.0,256.0,226.0
18:00:16,178.0,256.0,226.0
18:00:16,178.0,256.0,226.0
18:00:16,178.0,256.0,226.0
18:00:16,165.0,257.0,226.0
18:00:16,165.0,257.0,226.0
18:00:16,165.0,257.0,226.0
18:00:16,165.0,257.0,226.0
18:00:16,199.0,255.0,227.0
18:00:16,199.0,255.0,227.0
18:00:16,199.0,255.0,227.0
18:00:16,199.0,255.0,227.0
18:00:16,307.0,256.0,227.0
18:00:16,307.0,256.0,227.0
18:00:16,307.0,256.0,227.0
18:00:16,307.0,256.0,227.0
18:00:16,245.0,257.0,224.0
18:00:16,245.0,257.0,224.0
18:00:16,245.0,257.0,224.0
18:00:16,245.0,257.0,224.0
18:00:16,304.0,257.0,225.0
18:00:16,304.0,257.0,225.0
18:00:16,304.0,257.0,225.0
18:00:16,304.0,257.0,225.0
18:00:16,277.0,257.0,226.0
18:00:16,277.0,257.0,226.0
18:00:16,277.0,257.0,226.0
18:00:16,277.0,257.0,226.0
18:00:16,181.0,257.0,225.0
18:00:16,181.0,257.0,225.0
18:00:16,181.0,257.0,225.0
18:00:16,181.0,257.0,225.0
18:00:16,273.0,257.0,226.0
18:00:16,273.0,257.0,226.0
18:00:16,273.0,257.0,226.0
18:00:16,273.0,257.0,226.0
18:00:16,269.0,256.0,226.0
18:00:16,269.0,256.0,226.0
18:00:16,269.0,256.0,226.0
18:00:16,269.0,256.0,226.0
18:00:16,292.0,256.0,226.0
18:00:16,292.0,256.0,226.0
18:00:16,292.0,256.0,226.0
18:00:16,292.0,256.0,226.0
18:00:16,680.0,257.0,227.0
18:00:16,680.0,257.0,227.0
18:00:16,680.0,257.0,227.0
18:00:16,680.0,257.0,227.0
18:00:16,1947.0,256.0,227.0
18:00:16,1947.0,256.0,227.0
18:00:16,1947.0,256.0,227.0
18:00:16,1947.0,256.0,227.0
18:00:16,100.0,255.0,227.0
18:00:16,100.0,255.0,227.0
18:00:16,100.0,255.0,227.0
18:00:16,100.0,255.0,227.0
18:00:16,163.0,256.0,227.0
18:00:16,163.0,256.0,227.0
18:00:16,163.0,256.0,227.0
18:00:16,163.0,256.0,227.0
18:00:16,152.0,255.0,227.0
18:00:16,152.0,255.0,227.0
18:00:16,152.0,255.0,227.0
18:00:16,152.0,255.0,227.0
18:00:16,185.0,255.0,227.0
18:00:16,185.0,255.0,227.0
18:00:16,185.0,255.0,227.0
18:00:16,185.0,255.0,227.0
18:00:16,166.0,256.0,228.0
18:00:16,166.0,256.0,228.0
18:00:16,166.0,256.0,228.0
18:00:16,166.0,256.0,228.0
18:00:16,258.0,255.0,226.0
18:00:16,258.0,255.0,226.0
18:00:16,258.0,255.0,226.0
18:00:16,258.0,255.0,226.0
18:00:16,347.0,255.0,226.0
18:00:16,347.0,255.0,226.0
18:00:16,347.0,255.0,226.0
18:00:16,347.0,255.0,226.0
18:00:16,418.0,256.0,228.0
18:00:16,418.0,256.0,228.0
18:00:16,418.0,256.0,228.0
18:00:16,418.0,256.0,228.0
18:00:16,507.0,256.0,227.0
18:00:16,507.0,256.0,227.0
18:00:16,507.0,256.0,227.0
18:00:16,507.0,256.0,227.0
18:00:16,602.0,257.0,226.0
18:00:16,602.0,257.0,226.0
18:00:16,602.0,257.0,226.0
18:00:16,602.0,257.0,226.0
18:00:16,578.0,256.0,227.0
18:00:16,578.0,256.0,227.0
18:00:16,578.0,256.0,227.0
18:00:16,578.0,256.0,227.0
18:00:16,322.0,257.0,228.0
18:00:16,322.0,257.0,228.0
18:00:16,322.0,257.0,228.0
18:00:16,322.0,257.0,228.0
18:00:16,232.0,257.0,227.0
18:00:16,232.0,257.0,227.0
18:00:16,232.0,257.0,227.0
18:00:16,232.0,257.0,227.0
18:00:16,149.0,255.0,227.0
18:00:16,149.0,255.0,227.0
18:00:16,149.0,255.0,227.0
18:00:16,149.0,255.0,227.0
18:00:16,158.0,256.0,228.0
18:00:16,158.0,256.0,228.0
18:00:16,158.0,256.0,228.0
18:00:16,158.0,256.0,228.0
18:00:16,97.0,257.0,227.0
18:00:16,97.0,257.0,227.0
18:00:16,97.0,257.0,227.0
18:00:16,97.0,257.0,227.0
18:00:16,180.0,257.0,228.0
18:00:16,180.0,257.0,228.0
18:00:16,180.0,257.0,228.0
18:00:16,180.0,257.0,228.0
18:00:16,101.0,257.0,228.0
18:00:16,101.0,257.0,228.0
18:00:16,101.0,257.0,228.0
18:00:16,101.0,257.0,228.0
18:00:16,171.0,257.0,227.0
18:00:16,171.0,257.0,227.0
18:00:16,171.0,257.0,227.0
18:00:16,171.0,257.0,227.0
18:00:16,201.0,257.0,227.0
18:00:16,201.0,257.0,227.0
18:00:16,201.0,257.0,227.0
18:00:16,201.0,257.0,227.0
18:00:16,234.0,257.0,228.0
18:00:16,234.0,257.0,228.0
18:00:16,234.0,257.0,228.0
18:00:16,234.0,257.0,228.0
18:00:16,291.0,256.0,226.0
18:00:16,291.0,256.0,226.0
18:00:16,291.0,256.0,226.0
18:00:16,291.0,256.0,226.0
18:00:16,334.0,256.0,228.0
18:00:16,334.0,256.0,228.0
18:00:16,334.0,256.0,228.0
18:00:16,334.0,256.0,228.0
18:00:16,271.0,256.0,227.0
18:00:16,271.0,256.0,227.0
18:00:16,271.0,256.0,227.0
18:00:16,271.0,256.0,227.0
18:00:16,202.0,258.0,225.0
18:00:16,202.0,258.0,225.0
18:00:16,202.0,258.0,225.0
18:00:16,202.0,258.0,225.0
18:00:16,219.0,256.0,226.0
18:00:16,219.0,256.0,226.0
18:00:16,219.0,256.0,226.0
18:00:16,219.0,256.0,226.0
18:00:16,264.0,256.0,224.0
18:00:16,264.0,256.0,224.0
18:00:16,264.0,256.0,224.0
18:00:16,264.0,256.0,224.0
18:00:16,217.0,256.0,223.0
18:00:16,217.0,256.0,223.0
18:00:16,217.0,256.0,223.0
18:00:16,217.0,256.0,223.0
18:00:16,829.0,257.0,225.0
18:00:16,829.0,257.0,225.0
18:00:16,829.0,257.0,225.0
18:00:16,829.0,257.0,225.0
18:00:16,1631.0,257.0,225.0
18:00:16,1631.0,257.0,225.0
18:00:16,1631.0,257.0,225.0
18:00:17,1631.0,257.0,225.0
18:00:17,112.0,256.0,225.0
18:00:17,112.0,256.0,225.0
18:00:17,112.0,256.0,225.0
18:00:17,112.0,256.0,225.0
18:00:17,93.0,257.0,227.0
18:00:17,93.0,257.0,227.0
18:00:17,93.0,257.0,227.0
18:00:17,93.0,257.0,227.0
18:00:17,136.0,256.0,227.0
18:00:17,136.0,256.0,227.0
18:00:17,136.0,256.0,227.0
18:00:17,136.0,256.0,227.0
18:00:17,169.0,256.0,226.0
18:00:17,169.0,256.0,226.0
18:00:17,169.0,256.0,226.0
18:00:17,169.0,256.0,226.0
18:00:17,147.0,256.0,227.0
18:00:17,147.0,256.0,227.0
18:00:17,147.0,256.0,227.0
18:00:17,147.0,256.0,227.0
18:00:17,214.0,254.0,227.0
18:00:17,214.0,254.0,227.0
18:00:17,214.0,254.0,227.0
18:00:17,214.0,254.0,227.0
18:00:17,325.0,253.0,228.0
18:00:17,325.0,253.0,228.0
18:00:17,325.0,253.0,228.0
18:00:17,325.0,253.0,228.0
18:00:17,423.0,254.0,227.0
18:00:17,423.0,254.0,227.0
18:00:17,423.0,254.0,227.0
18:00:17,423.0,254.0,227.0
18:00:17,563.0,253.0,228.0
18:00:17,563.0,253.0,228.0
18:00:17,563.0,253.0,228.0
18:00:17,563.0,253.0,228.0
18:00:17,621.0,255.0,228.0
18:00:17,621.0,255.0,228.0
18:00:17,621.0,255.0,228.0
18:00:17,621.0,255.0,228.0
18:00:17,478.0,256.0,227.0
18:00:17,478.0,256.0,227.0
18:00:17,478.0,256.0,227.0
18:00:17,478.0,256.0,227.0
18:00:17,347.0,255.0,227.0
18:00:17,347.0,255.0,227.0
18:00:17,347.0,255.0,227.0
18:00:17,347.0,255.0,227.0
18:00:17,205.0,256.0,227.0
18:00:17,205.0,256.0,227.0
18:00:17,205.0,256.0,227.0
18:00:17,205.0,256.0,227.0
18:00:17,166.0,257.0,224.0
18:00:17,166.0,257.0,224.0
18:00:17,166.0,257.0,224.0
18:00:17,166.0,257.0,224.0
18:00:17,136.0,256.0,226.0
18:00:17,136.0,256.0,226.0
18:00:17,136.0,256.0,226.0
18:00:17,136.0,256.0,226.0
18:00:17,184.0,256.0,226.0
18:00:17,184.0,256.0,226.0
18:00:17,184.0,256.0,226.0
18:00:17,184.0,256.0,226.0
18:00:17,179.0,257.0,225.0
18:00:17,179.0,257.0,225.0
18:00:17,179.0,257.0,225.0
18:00:17,179.0,257.0,225.0
18:00:17,127.0,256.0,227.0
18:00:17,127.0,256.0,227.0
18:00:17,127.0,256.0,227.0
18:00:17,127.0,256.0,227.0
18:00:17,230.0,257.0,228.0
18:00:17,230.0,257.0,228.0
18:00:17,230.0,257.0,228.0
18:00:17,230.0,257.0,228.0
18:00:17,228.0,256.0,227.0
18:00:17,228.0,256.0,227.0
18:00:17,228.0,256.0,227.0
18:00:17,228.0,256.0,227.0
18:00:17,233.0,257.0,228.0
18:00:17,233.0,257.0,228.0
18:00:17,233.0,257.0,228.0
18:00:17,233.0,257.0,228.0
18:00:17,287.0,256.0,228.0
18:00:17,287.0,256.0,228.0
18:00:17,287.0,256.0,228.0
18:00:17,287.0,256.0,228.0
18:00:17,294.0,257.0,227.0
18:00:17,294.0,257.0,227.0
18:00:17,294.0,257.0,227.0
18:00:17,294.0,257.0,227.0
18:00:17,209.0,255.0,228.0
18:00:17,209.0,255.0,228.0
18:00:17,209.0,255.0,228.0
18:00:17,209.0,255.0,228.0
18:00:17,229.0,255.0,229.0
18:00:17,229.0,255.0,229.0
18:00:17,229.0,255.0,229.0
18:00:17,229.0,255.0,229.0
18:00:17,231.0,255.0,228.0
18:00:17,231.0,255.0,228.0
18:00:17,231.0,255.0,228.0
18:00:17,231.0,255.0,228.0
18:00:17,191.0,254.0,229.0
18:00:17,191.0,254.0,229.0
18:00:17,191.0,254.0,229.0
18:00:17,191.0,254.0,229.0
18:00:17,435.0,256.0,229.0
18:00:17,435.0,256.0,229.0
18:00:17,435.0,256.0,229.0
18:00:17,435.0,256.0,229.0
18:00:17,2224.0,256.0,228.0
18:00:17,2224.0,256.0,228.0
18:00:17,2224.0,256.0,228.0
18:00:17,2224.0,256.0,228.0
18:00:17,104.0,256.0,229.0
18:00:17,104.0,256.0,229.0
18:00:17,104.0,256.0,229.0
18:00:17,104.0,256.0,229.0
18:00:17,112.0,257.0,229.0
18:00:17,112.0,257.0,229.0
18:00:17,112.0,257.0,229.0
18:00:17,112.0,257.0,229.0
18:00:17,104.0,258.0,228.0
18:00:17,104.0,258.0,228.0
18:00:17,104.0,258.0,228.0
18:00:17,104.0,258.0,228.0
18:00:17,133.0,256.0,229.0
18:00:17,133.0,256.0,229.0
18:00:17,133.0,256.0,229.0
18:00:17,133.0,256.0,229.0
18:00:17,153.0,257.0,229.0
18:00:17,153.0,257.0,229.0
18:00:17,153.0,257.0,229.0
18:00:17,153.0,257.0,229.0
18:00:17,222.0,258.0,228.0
18:00:17,222.0,258.0,228.0
18:00:17,222.0,258.0,228.0
18:00:17,222.0,258.0,228.0
18:00:17,324.0,257.0,228.0
18:00:17,324.0,257.0,228.0
18:00:17,324.0,257.0,228.0
18:00:17,324.0,257.0,228.0
18:00:17,365.0,256.0,228.0
18:00:17,365.0,256.0,228.0
18:00:17,365.0,256.0,228.0
18:00:17,365.0,256.0,228.0
18:00:17,541.0,258.0,228.0
18:00:17,541.0,258.0,228.0
18:00:17,541.0,258.0,228.0
18:00:17,541.0,258.0,228.0
18:00:17,594.0,259.0,229.0
18:00:17,594.0,259.0,229.0
18:00:17,594.0,259.0,229.0
18:00:17,594.0,259.0,229.0
18:00:17,620.0,258.0,229.0
18:00:17,620.0,258.0,229.0
18:00:17,620.0,258.0,229.0
18:00:17,620.0,258.0,229.0
18:00:17,402.0,257.0,227.0
18:00:17,402.0,257.0,227.0
18:00:17,402.0,257.0,227.0
18:00:17,402.0,257.0,227.0
18:00:17,206.0,258.0,228.0
18:00:17,206.0,258.0,228.0
18:00:17,206.0,258.0,228.0
18:00:17,206.0,258.0,228.0
18:00:17,120.0,258.0,230.0
18:00:17,120.0,258.0,230.0
18:00:17,120.0,258.0,230.0
18:00:17,120.0,258.0,230.0
18:00:17,149.0,257.0,228.0
18:00:17,149.0,257.0,228.0
18:00:17,149.0,257.0,228.0
18:00:17,149.0,257.0,228.0
18:00:17,193.0,257.0,230.0
18:00:17,193.0,257.0,230.0
18:00:17,193.0,257.0,230.0
18:00:17,193.0,257.0,230.0
18:00:17,158.0,258.0,229.0
18:00:17,158.0,258.0,229.0
18:00:17,158.0,258.0,229.0
18:00:17,158.0,258.0,229.0
18:00:17,133.0,258.0,228.0
18:00:17,133.0,258.0,228.0
18:00:17,133.0,258.0,228.0
18:00:17,133.0,258.0,228.0
18:00:17,172.0,258.0,229.0
18:00:17,172.0,258.0,229.0
18:00:17,172.0,258.0,229.0
18:00:17,172.0,258.0,229.0
18:00:17,140.0,258.0,229.0
18:00:17,140.0,258.0,229.0
18:00:17,140.0,258.0,229.0
18:00:17,140.0,258.0,229.0
18:00:17,222.0,257.0,229.0
18:00:17,222.0,257.0,229.0
18:00:17,222.0,257.0,229.0
18:00:17,222.0,257.0,229.0
18:00:18,269.0,259.0,228.0
18:00:18,269.0,259.0,228.0
18:00:18,269.0,259.0,228.0
18:00:18,269.0,259.0,228.0
18:00:18,327.0,256.0,229.0
18:00:18,327.0,256.0,229.0
18:00:18,327.0,256.0,229.0
18:00:18,327.0,256.0,229.0
18:00:18,246.0,258.0,229.0
18:00:18,246.0,258.0,229.0
18:00:18,246.0,258.0,229.0
18:00:18,246.0,258.0,229.0
18:00:18,198.0,259.0,229.0
18:00:18,198.0,259.0,229.0
18:00:18,198.0,259.0,229.0
18:00:18,198.0,259.0,229.0
18:00:18,231.0,258.0,228.0
18:00:18,231.0,258.0,228.0
18:00:18,231.0,258.0,228.0
18:00:18,231.0,258.0,228.0
18:00:18,218.0,257.0,229.0
18:00:18,218.0,257.0,229.0
18:00:18,218.0,257.0,229.0
18:00:18,218.0,257.0,229.0
18:00:18,270.0,258.0,229.0
18:00:18,270.0,258.0,229.0
18:00:18,270.0,258.0,229.0
18:00:18,270.0,258.0,229.0
18:00:18,1881.0,258.0,229.0
18:00:18,1881.0,258.0,229.0
18:00:18,1881.0,258.0,229.0
18:00:18,1881.0,258.0,229.0
18:00:18,340.0,257.0,227.0
18:00:18,340.0,257.0,227.0
18:00:18,340.0,257.0,227.0
18:00:18,340.0,257.0,227.0
18:00:18,128.0,257.0,227.0
18:00:18,128.0,257.0,227.0
18:00:18,128.0,257.0,227.0
18:00:18,128.0,257.0,227.0
18:00:18,96.0,258.0,228.0
18:00:18,96.0,258.0,228.0
18:00:18,96.0,258.0,228.0
18:00:18,96.0,258.0,228.0
18:00:18,123.0,258.0,228.0
18:00:18,123.0,258.0,228.0
18:00:18,123.0,258.0,228.0
18:00:18,123.0,258.0,228.0
18:00:18,152.0,257.0,228.0
18:00:18,152.0,257.0,228.0
18:00:18,152.0,257.0,228.0
18:00:18,152.0,257.0,228.0
18:00:18,193.0,259.0,229.0
18:00:18,193.0,259.0,229.0
18:00:18,193.0,259.0,229.0
18:00:18,193.0,259.0,229.0
18:00:18,274.0,258.0,228.0
18:00:18,274.0,258.0,228.0
18:00:18,274.0,258.0,228.0
18:00:18,274.0,258.0,228.0
18:00:18,334.0,257.0,229.0
18:00:18,334.0,257.0,229.0
18:00:18,334.0,257.0,229.0
18:00:18,334.0,257.0,229.0
18:00:18,458.0,258.0,228.0
18:00:18,458.0,258.0,228.0
18:00:18,458.0,258.0,228.0
18:00:18,458.0,258.0,228.0
18:00:18,576.0,258.0,229.0
18:00:18,576.0,258.0,229.0
18:00:18,576.0,258.0,229.0
18:00:18,576.0,258.0,229.0
18:00:18,606.0,257.0,229.0
18:00:18,606.0,257.0,229.0
18:00:18,606.0,257.0,229.0
18:00:18,606.0,257.0,229.0
18:00:18,520.0,259.0,229.0
18:00:18,520.0,259.0,229.0
18:00:18,520.0,259.0,229.0
18:00:18,520.0,259.0,229.0
18:00:18,238.0,258.0,228.0
18:00:18,238.0,258.0,228.0
18:00:18,238.0,258.0,228.0
18:00:18,238.0,258.0,228.0
18:00:18,166.0,258.0,228.0
18:00:18,166.0,258.0,228.0
18:00:18,166.0,258.0,228.0
18:00:18,166.0,258.0,228.0
18:00:18,136.0,258.0,230.0
18:00:18,136.0,258.0,230.0
18:00:18,136.0,258.0,230.0
18:00:18,136.0,258.0,230.0
18:00:18,129.0,257.0,228.0
18:00:18,129.0,257.0,228.0
18:00:18,129.0,257.0,228.0
18:00:18,129.0,257.0,228.0
18:00:18,137.0,258.0,228.0
18:00:18,137.0,258.0,228.0
18:00:18,137.0,258.0,228.0
18:00:18,137.0,258.0,228.0
18:00:18,171.0,259.0,227.0
18:00:18,171.0,259.0,227.0
18:00:18,171.0,259.0,227.0
18:00:18,171.0,259.0,227.0
18:00:18,165.0,258.0,228.0
18:00:18,165.0,258.0,228.0
18:00:18,165.0,258.0,228.0
18:00:18,165.0,258.0,228.0
18:00:18,203.0,257.0,229.0
18:00:18,203.0,257.0,229.0
18:00:18,203.0,257.0,229.0
18:00:18,203.0,257.0,229.0
18:00:18,194.0,258.0,228.0
18:00:18,194.0,258.0,228.0
18:00:18,194.0,258.0,228.0
18:00:18,194.0,258.0,228.0
18:00:18,253.0,258.0,229.0
18:00:18,253.0,258.0,229.0
18:00:18,253.0,258.0,229.0
18:00:18,253.0,258.0,229.0
18:00:18,321.0,258.0,228.0
18:00:18,321.0,258.0,228.0
18:00:18,321.0,258.0,228.0
18:00:18,321.0,258.0,228.0
18:00:18,277.0,256.0,228.0
18:00:18,277.0,256.0,228.0
18:00:18,277.0,256.0,228.0
18:00:18,277.0,256.0,228.0
18:00:18,204.0,259.0,228.0
18:00:18,204.0,259.0,228.0
18:00:18,204.0,259.0,228.0
18:00:18,204.0,259.0,228.0
18:00:18,234.0,259.0,228.0
18:00:18,234.0,259.0,228.0
18:00:18,234.0,259.0,228.0
18:00:18,234.0,259.0,228.0
18:00:18,161.0,257.0,229.0
18:00:18,161.0,257.0,229.0
18:00:18,161.0,257.0,229.0
18:00:18,161.0,257.0,229.0
18:00:18,255.0,259.0,229.0
18:00:18,255.0,259.0,229.0
18:00:18,255.0,259.0,229.0
18:00:18,255.0,259.0,229.0
18:00:18,846.0,259.0,228.0
18:00:18,846.0,259.0,228.0
18:00:18,846.0,259.0,228.0
18:00:18,846.0,259.0,228.0
18:00:18,1634.0,257.0,229.0
18:00:18,1634.0,257.0,229.0
18:00:18,1634.0,257.0,229.0
18:00:18,1634.0,257.0,229.0
18:00:18,116.0,258.0,229.0
18:00:18,116.0,258.0,229.0
18:00:18,116.0,258.0,229.0
18:00:18,116.0,258.0,229.0
18:00:18,128.0,257.0,228.0
18:00:18,128.0,257.0,228.0
18:00:18,128.0,257.0,228.0
18:00:18,128.0,257.0,228.0
18:00:18,139.0,257.0,229.0
18:00:18,139.0,257.0,229.0
18:00:18,139.0,257.0,229.0
18:00:18,139.0,257.0,229.0
18:00:18,212.0,258.0,228.0
18:00:18,212.0,258.0,228.0
18:00:18,212.0,258.0,228.0
18:00:18,212.0,258.0,228.0
18:00:18,201.0,257.0,229.0
18:00:18,201.0,257.0,229.0
18:00:18,201.0,257.0,229.0
18:00:18,201.0,257.0,229.0
18:00:18,222.0,258.0,229.0
18:00:18,222.0,258.0,229.0
18:00:18,222.0,258.0,229.0
18:00:18,222.0,258.0,229.0
18:00:18,329.0,258.0,228.0
18:00:18,329.0,258.0,228.0
18:00:18,329.0,258.0,228.0
18:00:18,329.0,258.0,228.0
18:00:18,420.0,258.0,229.0
18:00:18,420.0,258.0,229.0
18:00:18,420.0,258.0,229.0
18:00:18,420.0,258.0,229.0
18:00:18,582.0,258.0,229.0
18:00:18,582.0,258.0,229.0
18:00:18,582.0,258.0,229.0
18:00:18,582.0,258.0,229.0
18:00:18,606.0,258.0,228.0
18:00:18,606.0,258.0,228.0
18:00:18,606.0,258.0,228.0
18:00:18,606.0,258.0,228.0
18:00:18,534.0,257.0,229.0
18:00:18,534.0,257.0,229.0
18:00:18,534.0,257.0,229.0
18:00:18,534.0,257.0,229.0
18:00:18,312.0,258.0,229.0
18:00:18,312.0,258.0,229.0
18:00:18,312.0,258.0,229.0
18:00:18,312.0,258.0,229.0
18:00:18,197.0,259.0,230.0
18:00:19,197.0,259.0,230.0
18:00:19,197.0,259.0,230.0
18:00:19,197.0,259.0,230.0
18:00:19,157.0,257.0,228.0
18:00:19,157.0,257.0,228.0
18:00:19,157.0,257.0,228.0
18:00:19,157.0,257.0,228.0
18:00:19,167.0,257.0,229.0
18:00:19,167.0,257.0,229.0
18:00:19,167.0,257.0,229.0
18:00:19,167.0,257.0,229.0
18:00:19,143.0,258.0,229.0
18:00:19,143.0,258.0,229.0
18:00:19,143.0,258.0,229.0
18:00:19,143.0,258.0,229.0
18:00:19,169.0,257.0,228.0
18:00:19,169.0,257.0,228.0
18:00:19,169.0,257.0,228.0
18:00:19,169.0,257.0,228.0
18:00:19,182.0,257.0,229.0
18:00:19,182.0,257.0,229.0
18:00:19,182.0,257.0,229.0
18:00:19,182.0,257.0,229.0
18:00:19,174.0,258.0,229.0
18:00:19,174.0,258.0,229.0
18:00:19,174.0,258.0,229.0
18:00:19,174.0,258.0,229.0
18:00:19,211.0,257.0,228.0
18:00:19,211.0,257.0,228.0
18:00:19,211.0,257.0,228.0
18:00:19,211.0,257.0,228.0
18:00:19,280.0,257.0,229.0
18:00:19,280.0,257.0,229.0
18:00:19,280.0,257.0,229.0
18:00:19,280.0,257.0,229.0
18:00:19,338.0,258.0,228.0
18:00:19,338.0,258.0,228.0
18:00:19,338.0,258.0,228.0
18:00:19,338.0,258.0,228.0
18:00:19,239.0,257.0,229.0
18:00:19,239.0,257.0,229.0
18:00:19,239.0,257.0,229.0
18:00:19,239.0,257.0,229.0
18:00:19,223.0,257.0,228.0
18:00:19,223.0,257.0,228.0
18:00:19,223.0,257.0,228.0
18:00:19,223.0,257.0,228.0
18:00:19,240.0,258.0,228.0
18:00:19,240.0,258.0,228.0
18:00:19,240.0,258.0,228.0
18:00:19,240.0,258.0,228.0
18:00:19,199.0,258.0,229.0
18:00:19,199.0,258.0,229.0
18:00:19,199.0,258.0,229.0
18:00:19,199.0,258.0,229.0
18:00:19,237.0,258.0,228.0
18:00:19,237.0,258.0,228.0
18:00:19,237.0,258.0,228.0
18:00:19,237.0,258.0,228.0
18:00:19,647.0,259.0,228.0
18:00:19,647.0,259.0,228.0
18:00:19,647.0,259.0,228.0
18:00:19,647.0,259.0,228.0
18:00:19,2021.0,258.0,228.0
18:00:19,2021.0,258.0,228.0
18:00:19,2021.0,258.0,228.0
18:00:19,2021.0,258.0,228.0
18:00:19,80.0,257.0,228.0
18:00:19,80.0,257.0,228.0
18:00:19,80.0,257.0,228.0
18:00:19,80.0,257.0,228.0
18:00:19,142.0,259.0,229.0
18:00:19,142.0,259.0,229.0
18:00:19,142.0,259.0,229.0
18:00:19,142.0,259.0,229.0
18:00:19,201.0,257.0,228.0
18:00:19,201.0,257.0,228.0
18:00:19,201.0,257.0,228.0
18:00:19,201.0,257.0,228.0
18:00:19,149.0,257.0,227.0
18:00:19,149.0,257.0,227.0
18:00:19,149.0,257.0,227.0
18:00:19,149.0,257.0,227.0
18:00:19,200.0,257.0,229.0
18:00:19,200.0,257.0,229.0
18:00:19,200.0,257.0,229.0
18:00:19,200.0,257.0,229.0
18:00:19,246.0,258.0,228.0
18:00:19,246.0,258.0,228.0
18:00:19,246.0,258.0,228.0
18:00:19,246.0,258.0,228.0
18:00:19,310.0,256.0,229.0
18:00:19,310.0,256.0,229.0
18:00:19,310.0,256.0,229.0
18:00:19,310.0,256.0,229.0
18:00:19,424.0,259.0,229.0
18:00:19,424.0,259.0,229.0
18:00:19,424.0,259.0,229.0
18:00:19,424.0,259.0,229.0
18:00:19,567.0,258.0,228.0
18:00:19,567.0,258.0,228.0
18:00:19,567.0,258.0,228.0
18:00:19,567.0,258.0,228.0
18:00:19,607.0,256.0,228.0
18:00:19,607.0,256.0,228.0
18:00:19,607.0,256.0,228.0
18:00:19,607.0,256.0,228.0
18:00:19,506.0,258.0,229.0
18:00:19,506.0,258.0,229.0
18:00:19,506.0,258.0,229.0
18:00:19,506.0,258.0,229.0
18:00:19,341.0,257.0,229.0
18:00:19,341.0,257.0,229.0
18:00:19,341.0,257.0,229.0
18:00:19,341.0,257.0,229.0
18:00:19,183.0,257.0,228.0
18:00:19,183.0,257.0,228.0
18:00:19,183.0,257.0,228.0
18:00:19,183.0,257.0,228.0
18:00:19,168.0,259.0,228.0
18:00:19,168.0,259.0,228.0
18:00:19,168.0,259.0,228.0
18:00:19,168.0,259.0,228.0
18:00:19,153.0,257.0,228.0
18:00:19,153.0,257.0,228.0
18:00:19,153.0,257.0,228.0
18:00:19,153.0,257.0,228.0
18:00:19,135.0,258.0,229.0
18:00:19,135.0,258.0,229.0
18:00:19,135.0,258.0,229.0
18:00:19,135.0,258.0,229.0
18:00:19,133.0,259.0,228.0
18:00:19,133.0,259.0,228.0
18:00:19,133.0,259.0,228.0
18:00:19,133.0,259.0,228.0
18:00:19,159.0,257.0,228.0
18:00:19,159.0,257.0,228.0
18:00:19,159.0,257.0,228.0
18:00:19,159.0,257.0,228.0
18:00:19,153.0,258.0,229.0
18:00:19,153.0,258.0,229.0
18:00:19,153.0,258.0,229.0
18:00:19,153.0,258.0,229.0
18:00:19,243.0,259.0,227.0
18:00:19,243.0,259.0,227.0
18:00:19,243.0,259.0,227.0
18:00:19,243.0,259.0,227.0
18:00:19,307.0,258.0,229.0
18:00:19,307.0,258.0,229.0
18:00:19,307.0,258.0,229.0
18:00:19,307.0,258.0,229.0
18:00:19,299.0,258.0,230.0
18:00:19,299.0,258.0,230.0
18:00:19,299.0,258.0,230.0
18:00:19,299.0,258.0,230.0
18:00:19,231.0,259.0,228.0
18:00:19,231.0,259.0,228.0
18:00:19,231.0,259.0,228.0
18:00:19,231.0,259.0,228.0
18:00:19,173.0,259.0,229.0
18:00:19,173.0,259.0,229.0
18:00:19,173.0,259.0,229.0
18:00:19,173.0,259.0,229.0
18:00:19,238.0,257.0,230.0
18:00:19,238.0,257.0,230.0
18:00:19,238.0,257.0,230.0
18:00:19,238.0,257.0,230.0
18:00:19,226.0,259.0,229.0
18:00:19,226.0,259.0,229.0
18:00:19,226.0,259.0,229.0
18:00:19,226.0,259.0,229.0
18:00:19,235.0,257.0,228.0
18:00:19,235.0,257.0,228.0
18:00:19,235.0,257.0,228.0
18:00:19,235.0,257.0,228.0
18:00:19,692.0,257.0,228.0
18:00:19,692.0,257.0,228.0
18:00:19,692.0,257.0,228.0
18:00:19,692.0,257.0,228.0
18:00:19,1898.0,258.0,229.0
18:00:19,1898.0,258.0,229.0
18:00:19,1898.0,258.0,229.0
18:00:19,1898.0,258.0,229.0
18:00:19,38.0,258.0,228.0
18:00:19,38.0,258.0,228.0
18:00:19,38.0,258.0,228.0
18:00:19,38.0,258.0,228.0
18:00:19,146.0,257.0,229.0
18:00:19,146.0,257.0,229.0
18:00:19,146.0,257.0,229.0
18:00:19,146.0,257.0,229.0
18:00:19,134.0,258.0,229.0
18:00:19,134.0,258.0,229.0
18:00:19,134.0,258.0,229.0
18:00:19,134.0,258.0,229.0
18:00:19,172.0,257.0,230.0
18:00:19,172.0,257.0,230.0
18:00:19,172.0,257.0,230.0
18:00:19,172.0,257.0,230.0
18:00:19,181.0,258.0,230.0
18:00:20,181.0,258.0,230.0
18:00:20,181.0,258.0,230.0
18:00:20,181.0,258.0,230.0
18:00:20,248.0,258.0,228.0
18:00:20,248.0,258.0,228.0
18:00:20,248.0,258.0,228.0
18:00:20,248.0,258.0,228.0
18:00:20,296.0,257.0,231.0
18:00:20,296.0,257.0,231.0
18:00:20,296.0,257.0,231.0
18:00:20,296.0,257.0,231.0
18:00:20,376.0,257.0,231.0
18:00:20,376.0,257.0,231.0
18:00:20,376.0,257.0,231.0
18:00:20,376.0,257.0,231.0
18:00:20,577.0,258.0,229.0
18:00:20,577.0,258.0,229.0
18:00:20,577.0,258.0,229.0
18:00:20,577.0,258.0,229.0
18:00:20,561.0,258.0,231.0
18:00:20,561.0,258.0,231.0
18:00:20,561.0,258.0,231.0
18:00:20,561.0,258.0,231.0
18:00:20,572.0,258.0,231.0
18:00:20,572.0,258.0,231.0
18:00:20,572.0,258.0,231.0
18:00:20,572.0,258.0,231.0
18:00:20,323.0,259.0,229.0
18:00:20,323.0,259.0,229.0
18:00:20,323.0,259.0,229.0
18:00:20,323.0,259.0,229.0
18:00:20,187.0,258.0,230.0
18:00:20,187.0,258.0,230.0
18:00:20,187.0,258.0,230.0
18:00:20,187.0,258.0,230.0
18:00:20,142.0,258.0,229.0
18:00:20,142.0,258.0,229.0
18:00:20,142.0,258.0,229.0
18:00:20,142.0,258.0,229.0
18:00:20,181.0,258.0,228.0
18:00:20,181.0,258.0,228.0
18:00:20,181.0,258.0,228.0
18:00:20,181.0,258.0,228.0
18:00:20,107.0,260.0,229.0
18:00:20,107.0,260.0,229.0
18:00:20,107.0,260.0,229.0
18:00:20,107.0,260.0,229.0
18:00:20,108.0,259.0,228.0
18:00:20,108.0,259.0,228.0
18:00:20,108.0,259.0,228.0
18:00:20,108.0,259.0,228.0
18:00:20,169.0,258.0,229.0
18:00:20,169.0,258.0,229.0
18:00:20,169.0,258.0,229.0
18:00:20,169.0,258.0,229.0
18:00:20,152.0,260.0,227.0
18:00:20,152.0,260.0,227.0
18:00:20,152.0,260.0,227.0
18:00:20,152.0,260.0,227.0
18:00:20,206.0,259.0,230.0
18:00:20,206.0,259.0,230.0
18:00:20,206.0,259.0,230.0
18:00:20,206.0,259.0,230.0
18:00:20,259.0,260.0,229.0
18:00:20,259.0,260.0,229.0
18:00:20,259.0,260.0,229.0
18:00:20,259.0,260.0,229.0
18:00:20,322.0,260.0,228.0
18:00:20,322.0,260.0,228.0
18:00:20,322.0,260.0,228.0
18:00:20,322.0,260.0,228.0
18:00:20,273.0,260.0,229.0
18:00:20,273.0,260.0,229.0
18:00:20,273.0,260.0,229.0
18:00:20,273.0,260.0,229.0
18:00:20,214.0,259.0,228.0
18:00:20,214.0,259.0,228.0
18:00:20,214.0,259.0,228.0
18:00:20,214.0,259.0,228.0
18:00:20,219.0,258.0,228.0
18:00:20,219.0,258.0,228.0
18:00:20,219.0,258.0,228.0
18:00:20,219.0,258.0,228.0
18:00:20,217.0,259.0,229.0
18:00:20,217.0,259.0,229.0
18:00:20,217.0,259.0,229.0
18:00:20,217.0,259.0,229.0
18:00:20,207.0,258.0,229.0
18:00:20,207.0,258.0,229.0
18:00:20,207.0,258.0,229.0
18:00:20,207.0,258.0,229.0
18:00:20,522.0,257.0,228.0
18:00:20,522.0,257.0,228.0
18:00:20,522.0,257.0,228.0
18:00:20,522.0,257.0,228.0
18:00:20,2326.0,258.0,229.0
18:00:20,2326.0,258.0,229.0
18:00:20,2326.0,258.0,229.0
18:00:20,2326.0,258.0,229.0
18:00:20,73.0,258.0,228.0
18:00:20,73.0,258.0,228.0
18:00:20,73.0,258.0,228.0
18:00:20,73.0,258.0,228.0
18:00:20,132.0,257.0,229.0
18:00:20,132.0,257.0,229.0
18:00:20,132.0,257.0,229.0
18:00:20,132.0,257.0,229.0
18:00:20,107.0,259.0,227.0
18:00:20,107.0,259.0,227.0
18:00:20,107.0,259.0,227.0
18:00:20,107.0,259.0,227.0
18:00:20,157.0,257.0,230.0
18:00:20,157.0,257.0,230.0
18:00:20,157.0,257.0,230.0
18:00:20,157.0,257.0,230.0
18:00:20,204.0,258.0,229.0
18:00:20,204.0,258.0,229.0
18:00:20,204.0,258.0,229.0
18:00:20,204.0,258.0,229.0
18:00:20,219.0,259.0,228.0
18:00:20,219.0,259.0,228.0
18:00:20,219.0,259.0,228.0
18:00:20,219.0,259.0,228.0
18:00:20,226.0,258.0,230.0
18:00:20,226.0,258.0,230.0
18:00:20,226.0,258.0,230.0
18:00:20,226.0,258.0,230.0
18:00:20,385.0,258.0,231.0
18:00:20,385.0,258.0,231.0
18:00:20,385.0,258.0,231.0
18:00:20,385.0,258.0,231.0
18:00:20,511.0,259.0,230.0
18:00:20,511.0,259.0,230.0
18:00:20,511.0,259.0,230.0
18:00:20,511.0,259.0,230.0
18:00:20,621.0,259.0,231.0
18:00:20,621.0,259.0,231.0
18:00:20,621.0,259.0,231.0
18:00:20,621.0,259.0,231.0
18:00:20,556.0,258.0,231.0
18:00:20,556.0,258.0,231.0
18:00:20,556.0,258.0,231.0
18:00:20,556.0,258.0,231.0
18:00:20,399.0,259.0,230.0
18:00:20,399.0,259.0,230.0
18:00:20,399.0,259.0,230.0
18:00:20,399.0,259.0,230.0
18:00:20,247.0,257.0,230.0
18:00:20,247.0,257.0,230.0
18:00:20,247.0,257.0,230.0
18:00:20,247.0,257.0,230.0
18:00:20,126.0,257.0,229.0
18:00:20,126.0,257.0,229.0
18:00:20,126.0,257.0,229.0
18:00:20,126.0,257.0,229.0
18:00:20,112.0,258.0,229.0
18:00:20,112.0,258.0,229.0
18:00:20,112.0,258.0,229.0
18:00:20,112.0,258.0,229.0
18:00:20,174.0,257.0,229.0
18:00:20,174.0,257.0,229.0
18:00:20,174.0,257.0,229.0
18:00:20,174.0,257.0,229.0
18:00:20,177.0,258.0,228.0
18:00:20,177.0,258.0,228.0
18:00:20,177.0,258.0,228.0
18:00:20,177.0,258.0,228.0
18:00:20,191.0,257.0,227.0
18:00:20,191.0,257.0,227.0
18:00:20,191.0,257.0,227.0
18:00:20,191.0,257.0,227.0
18:00:20,189.0,260.0,228.0
18:00:20,189.0,260.0,228.0
18:00:20,189.0,260.0,228.0
18:00:20,189.0,260.0,228.0
18:00:20,182.0,260.0,227.0
18:00:20,182.0,260.0,227.0
18:00:20,182.0,260.0,227.0
18:00:20,182.0,260.0,227.0
18:00:20,273.0,260.0,227.0
18:00:20,273.0,260.0,227.0
18:00:20,273.0,260.0,227.0
18:00:20,273.0,260.0,227.0
18:00:20,226.0,260.0,227.0
18:00:20,226.0,260.0,227.0
18:00:20,226.0,260.0,227.0
18:00:20,226.0,260.0,227.0
18:00:20,327.0,260.0,227.0
18:00:20,327.0,260.0,227.0
18:00:20,327.0,260.0,227.0
18:00:20,327.0,260.0,227.0
18:00:20,215.0,258.0,228.0
18:00:20,215.0,258.0,228.0
18:00:20,215.0,258.0,228.0
18:00:20,215.0,258.0,228.0
18:00:20,206.0,260.0,227.0
18:00:20,206.0,260.0,227.0
18:00:20,206.0,260.0,227.0
18:00:20,206.0,260.0,227.0
18:00:20,192.0,257.0,228.0
18:00:20,192.0,257.0,228.0
18:00:21,192.0,257.0,228.0
18:00:21,192.0,257.0,228.0
18:00:21,202.0,258.0,227.0
18:00:21,202.0,258.0,227.0
18:00:21,202.0,258.0,227.0
18:00:21,202.0,258.0,227.0
18:00:21,423.0,257.0,227.0
18:00:21,423.0,257.0,227.0
18:00:21,423.0,257.0,227.0
18:00:21,423.0,257.0,227.0
18:00:21,2303.0,257.0,228.0
18:00:21,2303.0,257.0,228.0
18:00:21,2303.0,257.0,228.0
18:00:21,2303.0,257.0,228.0
18:00:21,114.0,258.0,227.0
18:00:21,114.0,258.0,227.0
18:00:21,114.0,258.0,227.0
18:00:21,114.0,258.0,227.0
18:00:21,77.0,256.0,227.0
18:00:21,77.0,256.0,227.0
18:00:21,77.0,256.0,227.0
18:00:21,77.0,256.0,227.0
18:00:21,109.0,257.0,227.0
18:00:21,109.0,257.0,227.0
18:00:21,109.0,257.0,227.0
18:00:21,109.0,257.0,227.0
18:00:21,128.0,258.0,227.0
18:00:21,128.0,258.0,227.0
18:00:21,128.0,258.0,227.0
18:00:21,128.0,258.0,227.0
18:00:21,175.0,257.0,228.0
18:00:21,175.0,257.0,228.0
18:00:21,175.0,257.0,228.0
18:00:21,175.0,257.0,228.0
18:00:21,227.0,259.0,227.0
18:00:21,227.0,259.0,227.0
18:00:21,227.0,259.0,227.0
18:00:21,227.0,259.0,227.0
18:00:21,312.0,257.0,228.0
18:00:21,312.0,257.0,228.0
18:00:21,312.0,257.0,228.0
18:00:21,312.0,257.0,228.0
18:00:21,390.0,257.0,227.0
18:00:21,390.0,257.0,227.0
18:00:21,390.0,257.0,227.0
18:00:21,390.0,257.0,227.0
18:00:21,483.0,258.0,227.0
18:00:21,483.0,258.0,227.0
18:00:21,483.0,258.0,227.0
18:00:21,483.0,258.0,227.0
18:00:21,632.0,257.0,227.0
18:00:21,632.0,257.0,227.0
18:00:21,632.0,257.0,227.0
18:00:21,632.0,257.0,227.0
18:00:21,592.0,258.0,228.0
18:00:21,592.0,258.0,228.0
18:00:21,592.0,258.0,228.0
18:00:21,592.0,258.0,228.0
18:00:21,410.0,257.0,228.0
18:00:21,410.0,257.0,228.0
18:00:21,410.0,257.0,228.0
18:00:21,410.0,257.0,228.0
18:00:21,197.0,256.0,228.0
18:00:21,197.0,256.0,228.0
18:00:21,197.0,256.0,228.0
18:00:21,197.0,256.0,228.0
18:00:21,207.0,257.0,227.0
18:00:21,207.0,257.0,227.0
18:00:21,207.0,257.0,227.0
18:00:21,207.0,257.0,227.0
18:00:21,128.0,257.0,227.0
18:00:21,128.0,257.0,227.0
18:00:21,128.0,257.0,227.0
18:00:21,128.0,257.0,227.0
18:00:21,196.0,257.0,228.0
18:00:21,196.0,257.0,228.0
18:00:21,196.0,257.0,228.0
18:00:21,196.0,257.0,228.0
18:00:21,146.0,257.0,228.0
18:00:21,146.0,257.0,228.0
18:00:21,146.0,257.0,228.0
18:00:21,146.0,257.0,228.0
18:00:21,198.0,257.0,229.0
18:00:21,198.0,257.0,229.0
18:00:21,198.0,257.0,229.0
18:00:21,198.0,257.0,229.0
18:00:21,189.0,258.0,229.0
18:00:21,189.0,258.0,229.0
18:00:21,189.0,258.0,229.0
18:00:21,189.0,258.0,229.0
18:00:21,184.0,257.0,229.0
18:00:21,184.0,257.0,229.0
18:00:21,184.0,257.0,229.0
18:00:21,184.0,257.0,229.0
18:00:21,218.0,256.0,229.0
18:00:21,218.0,256.0,229.0
18:00:21,218.0,256.0,229.0
18:00:21,218.0,256.0,229.0
18:00:21,303.0,256.0,230.0
18:00:21,303.0,256.0,230.0
18:00:21,303.0,256.0,230.0
18:00:21,303.0,256.0,230.0
18:00:21,363.0,258.0,229.0
18:00:21,363.0,258.0,229.0
18:00:21,363.0,258.0,229.0
18:00:21,363.0,258.0,229.0
18:00:21,229.0,256.0,228.0
18:00:21,229.0,256.0,228.0
18:00:21,229.0,256.0,228.0
18:00:21,229.0,256.0,228.0
18:00:21,185.0,257.0,227.0
18:00:21,185.0,257.0,227.0
18:00:21,185.0,257.0,227.0
18:00:21,185.0,257.0,227.0
18:00:21,204.0,257.0,227.0
18:00:21,204.0,257.0,227.0
18:00:21,204.0,257.0,227.0
18:00:21,204.0,257.0,227.0
18:00:21,224.0,257.0,228.0
18:00:21,224.0,257.0,228.0
18:00:21,224.0,257.0,228.0
18:00:21,224.0,257.0,228.0
18:00:21,217.0,257.0,227.0
18:00:21,217.0,257.0,227.0
18:00:21,217.0,257.0,227.0
18:00:21,217.0,257.0,227.0
18:00:21,1190.0,258.0,228.0
18:00:21,1190.0,258.0,228.0
18:00:21,1190.0,258.0,228.0
18:00:21,1190.0,258.0,228.0
18:00:21,827.0,258.0,227.0
18:00:21,827.0,258.0,227.0
18:00:21,827.0,258.0,227.0
18:00:21,827.0,258.0,227.0
18:00:21,43.0,258.0,227.0
18:00:21,43.0,258.0,227.0
18:00:21,43.0,258.0,227.0
18:00:21,43.0,258.0,227.0
18:00:21,141.0,259.0,228.0
18:00:21,141.0,259.0,228.0
18:00:21,141.0,259.0,228.0
18:00:21,141.0,259.0,228.0
18:00:21,149.0,257.0,228.0
18:00:21,149.0,257.0,228.0
18:00:21,149.0,257.0,228.0
18:00:21,149.0,257.0,228.0
18:00:21,179.0,259.0,227.0
18:00:21,179.0,259.0,227.0
18:00:21,179.0,259.0,227.0
18:00:21,179.0,259.0,227.0
18:00:21,185.0,259.0,227.0
18:00:21,185.0,259.0,227.0
18:00:21,185.0,259.0,227.0
18:00:21,185.0,259.0,227.0
18:00:21,251.0,256.0,228.0
18:00:21,251.0,256.0,228.0
18:00:21,251.0,256.0,228.0
18:00:21,251.0,256.0,228.0
18:00:21,384.0,257.0,227.0
18:00:21,384.0,257.0,227.0
18:00:21,384.0,257.0,227.0
18:00:21,384.0,257.0,227.0
18:00:21,453.0,257.0,227.0
18:00:21,453.0,257.0,227.0
18:00:21,453.0,257.0,227.0
18:00:21,453.0,257.0,227.0
18:00:21,551.0,256.0,227.0
18:00:21,551.0,256.0,227.0
18:00:21,551.0,256.0,227.0
18:00:21,551.0,256.0,227.0
18:00:21,629.0,256.0,228.0
18:00:21,629.0,256.0,228.0
18:00:21,629.0,256.0,228.0
18:00:21,629.0,256.0,228.0
18:00:21,450.0,257.0,226.0
18:00:21,450.0,257.0,226.0
18:00:21,450.0,257.0,226.0
18:00:21,450.0,257.0,226.0
18:00:21,307.0,257.0,227.0
18:00:21,307.0,257.0,227.0
18:00:21,307.0,257.0,227.0
18:00:21,307.0,257.0,227.0
18:00:21,169.0,256.0,228.0
18:00:21,169.0,256.0,228.0
18:00:21,169.0,256.0,228.0
18:00:21,169.0,256.0,228.0
18:00:21,142.0,257.0,226.0
18:00:21,142.0,257.0,226.0
18:00:21,142.0,257.0,226.0
18:00:21,142.0,257.0,226.0
18:00:21,143.0,256.0,228.0
18:00:21,143.0,256.0,228.0
18:00:21,143.0,256.0,228.0
18:00:21,143.0,256.0,228.0
18:00:21,182.0,255.0,227.0
18:00:21,182.0,255.0,227.0
18:00:21,182.0,255.0,227.0
18:00:21,182.0,255.0,227.0
18:00:21,165.0,257.0,226.0
18:00:21,165.0,257.0,226.0
18:00:21,165.0,257.0,226.0
18:00:22,165.0,257.0,226.0
18:00:22,184.0,256.0,228.0
18:00:22,184.0,256.0,228.0
18:00:22,184.0,256.0,228.0
18:00:22,184.0,256.0,228.0
18:00:22,171.0,257.0,228.0
18:00:22,171.0,257.0,228.0
18:00:22,171.0,257.0,228.0
18:00:22,171.0,257.0,228.0
18:00:22,269.0,257.0,227.0
18:00:22,269.0,257.0,227.0
18:00:22,269.0,257.0,227.0
18:00:22,269.0,257.0,227.0
18:00:22,262.0,256.0,228.0
18:00:22,262.0,256.0,228.0
18:00:22,262.0,256.0,228.0
18:00:22,262.0,256.0,228.0
18:00:22,355.0,257.0,227.0
18:00:22,355.0,257.0,227.0
18:00:22,355.0,257.0,227.0
18:00:22,355.0,257.0,227.0
18:00:22,233.0,256.0,227.0
18:00:22,233.0,256.0,227.0
18:00:22,233.0,256.0,227.0
18:00:22,233.0,256.0,227.0
18:00:22,240.0,257.0,228.0
18:00:22,240.0,257.0,228.0
18:00:22,240.0,257.0,228.0
18:00:22,240.0,257.0,228.0
18:00:22,216.0,257.0,227.0
18:00:22,216.0,257.0,227.0
18:00:22,216.0,257.0,227.0
18:00:22,216.0,257.0,227.0
18:00:22,218.0,256.0,228.0
18:00:22,218.0,256.0,228.0
18:00:22,218.0,256.0,228.0
18:00:22,218.0,256.0,228.0
18:00:22,248.0,257.0,226.0
18:00:22,248.0,257.0,226.0
18:00:22,248.0,257.0,226.0
18:00:22,248.0,257.0,226.0
18:00:22,1100.0,256.0,227.0
18:00:22,1100.0,256.0,227.0
18:00:22,1100.0,256.0,227.0
18:00:22,1100.0,256.0,227.0
18:00:22,870.0,256.0,227.0
18:00:22,870.0,256.0,227.0
18:00:22,870.0,256.0,227.0
18:00:22,870.0,256.0,227.0
18:00:22,58.0,258.0,228.0
18:00:22,58.0,258.0,228.0
18:00:22,58.0,258.0,228.0
18:00:22,58.0,258.0,228.0
18:00:22,197.0,257.0,227.0
18:00:22,197.0,257.0,227.0
18:00:22,197.0,257.0,227.0
18:00:22,197.0,257.0,227.0
18:00:22,152.0,256.0,227.0
18:00:22,152.0,256.0,227.0
18:00:22,152.0,256.0,227.0
18:00:22,152.0,256.0,227.0
18:00:22,225.0,256.0,227.0
18:00:22,225.0,256.0,227.0
18:00:22,225.0,256.0,227.0
18:00:22,225.0,256.0,227.0
18:00:22,239.0,256.0,228.0
18:00:22,239.0,256.0,228.0
18:00:22,239.0,256.0,228.0
18:00:22,239.0,256.0,228.0
18:00:22,253.0,257.0,227.0
18:00:22,253.0,257.0,227.0
18:00:22,253.0,257.0,227.0
18:00:22,253.0,257.0,227.0
18:00:22,316.0,257.0,228.0
18:00:22,316.0,257.0,228.0
18:00:22,316.0,257.0,228.0
18:00:22,316.0,257.0,228.0
18:00:22,447.0,256.0,227.0
18:00:22,447.0,256.0,227.0
18:00:22,447.0,256.0,227.0
18:00:22,447.0,256.0,227.0
18:00:22,581.0,256.0,228.0
18:00:22,581.0,256.0,228.0
18:00:22,581.0,256.0,228.0
18:00:22,581.0,256.0,228.0
18:00:22,592.0,257.0,226.0
18:00:22,592.0,257.0,226.0
18:00:22,592.0,257.0,226.0
18:00:22,592.0,257.0,226.0
18:00:22,534.0,256.0,228.0
18:00:22,534.0,256.0,228.0
18:00:22,534.0,256.0,228.0
18:00:22,534.0,256.0,228.0
18:00:22,285.0,257.0,228.0
18:00:22,285.0,257.0,228.0
18:00:22,285.0,257.0,228.0
18:00:22,285.0,257.0,228.0
18:00:22,212.0,257.0,227.0
18:00:22,212.0,257.0,227.0
18:00:22,212.0,257.0,227.0
18:00:22,212.0,257.0,227.0
18:00:22,139.0,256.0,227.0
18:00:22,139.0,256.0,227.0
18:00:22,139.0,256.0,227.0
18:00:22,139.0,256.0,227.0
18:00:22,175.0,257.0,228.0
18:00:22,175.0,257.0,228.0
18:00:22,175.0,257.0,228.0
18:00:22,175.0,257.0,228.0
18:00:22,154.0,257.0,227.0
18:00:22,154.0,257.0,227.0
18:00:22,154.0,257.0,227.0
18:00:22,154.0,257.0,227.0
18:00:22,155.0,256.0,227.0
18:00:22,155.0,256.0,227.0
18:00:22,155.0,256.0,227.0
18:00:22,155.0,256.0,227.0
18:00:22,221.0,256.0,227.0
18:00:22,221.0,256.0,227.0
18:00:22,221.0,256.0,227.0
18:00:22,221.0,256.0,227.0
18:00:22,197.0,257.0,229.0
18:00:22,197.0,257.0,229.0
18:00:22,197.0,257.0,229.0
18:00:22,197.0,257.0,229.0
18:00:22,249.0,257.0,228.0
18:00:22,249.0,257.0,228.0
18:00:22,249.0,257.0,228.0
18:00:22,249.0,257.0,228.0
18:00:22,253.0,256.0,227.0
18:00:22,253.0,256.0,227.0
18:00:22,253.0,256.0,227.0
18:00:22,253.0,256.0,227.0
18:00:22,394.0,256.0,227.0
18:00:22,394.0,256.0,227.0
18:00:22,394.0,256.0,227.0
18:00:22,394.0,256.0,227.0
18:00:22,234.0,256.0,227.0
18:00:22,234.0,256.0,227.0
18:00:22,234.0,256.0,227.0
18:00:22,234.0,256.0,227.0
18:00:22,256.0,256.0,227.0
18:00:22,256.0,256.0,227.0
18:00:22,256.0,256.0,227.0
18:00:22,256.0,256.0,227.0
18:00:22,243.0,258.0,228.0
18:00:22,243.0,258.0,228.0
18:00:22,243.0,258.0,228.0
18:00:22,243.0,258.0,228.0
18:00:22,232.0,256.0,227.0
18:00:22,232.0,256.0,227.0
18:00:22,232.0,256.0,227.0
18:00:22,232.0,256.0,227.0
18:00:22,287.0,256.0,227.0
18:00:22,287.0,256.0,227.0
18:00:22,287.0,256.0,227.0
18:00:22,287.0,256.0,227.0
18:00:22,1808.0,256.0,226.0
18:00:22,1808.0,256.0,226.0
18:00:22,1808.0,256.0,226.0
18:00:22,1808.0,256.0,226.0
18:00:22,240.0,256.0,228.0
18:00:22,240.0,256.0,228.0
18:00:22,240.0,256.0,228.0
18:00:22,240.0,256.0,228.0
18:00:22,127.0,257.0,227.0
18:00:22,127.0,257.0,227.0
18:00:22,127.0,257.0,227.0
18:00:22,127.0,257.0,227.0
18:00:22,158.0,257.0,227.0
18:00:22,158.0,257.0,227.0
18:00:22,158.0,257.0,227.0
18:00:22,158.0,257.0,227.0
18:00:22,166.0,257.0,227.0
18:00:22,166.0,257.0,227.0
18:00:22,166.0,257.0,227.0
18:00:22,166.0,257.0,227.0
18:00:22,200.0,256.0,227.0
18:00:22,200.0,256.0,227.0
18:00:22,200.0,256.0,227.0
18:00:22,200.0,256.0,227.0
18:00:22,239.0,256.0,225.0
18:00:22,239.0,256.0,225.0
18:00:22,239.0,256.0,225.0
18:00:22,239.0,256.0,225.0
18:00:22,297.0,257.0,228.0
18:00:22,297.0,257.0,228.0
18:00:22,297.0,257.0,228.0
18:00:22,297.0,257.0,228.0
18:00:22,359.0,257.0,227.0
18:00:22,359.0,257.0,227.0
18:00:22,359.0,257.0,227.0
18:00:22,359.0,257.0,227.0
18:00:22,456.0,256.0,226.0
18:00:22,456.0,256.0,226.0
18:00:22,456.0,256.0,226.0
18:00:22,456.0,256.0,226.0
18:00:22,609.0,255.0,227.0
18:00:22,609.0,255.0,227.0
18:00:22,609.0,255.0,227.0
18:00:22,609.0,255.0,227.0
18:00:23,551.0,256.0,226.0
18:00:23,551.0,256.0,226.0
18:00:23,551.0,256.0,226.0
18:00:23,551.0,256.0,226.0
18:00:23,447.0,255.0,224.0
18:00:23,447.0,255.0,224.0
18:00:23,447.0,255.0,224.0
18:00:23,447.0,255.0,224.0
18:00:23,264.0,258.0,225.0
18:00:23,264.0,258.0,225.0
18:00:23,264.0,258.0,225.0
18:00:23,264.0,258.0,225.0
18:00:23,138.0,256.0,225.0
18:00:23,138.0,256.0,225.0
18:00:23,138.0,256.0,225.0
18:00:23,138.0,256.0,225.0
18:00:23,166.0,256.0,224.0
18:00:23,166.0,256.0,224.0
18:00:23,166.0,256.0,224.0
18:00:23,166.0,256.0,224.0
18:00:23,126.0,257.0,226.0
18:00:23,126.0,257.0,226.0
18:00:23,126.0,257.0,226.0
18:00:23,126.0,257.0,226.0
18:00:23,153.0,256.0,227.0
18:00:23,153.0,256.0,227.0
18:00:23,153.0,256.0,227.0
18:00:23,153.0,256.0,227.0
18:00:23,126.0,257.0,226.0
18:00:23,126.0,257.0,226.0
18:00:23,126.0,257.0,226.0
18:00:23,126.0,257.0,226.0
18:00:23,144.0,256.0,227.0
18:00:23,144.0,256.0,227.0
18:00:23,144.0,256.0,227.0
18:00:23,144.0,256.0,227.0
18:00:23,206.0,256.0,227.0
18:00:23,206.0,256.0,227.0
18:00:23,206.0,256.0,227.0
18:00:23,206.0,256.0,227.0
18:00:23,243.0,252.0,227.0
18:00:23,243.0,252.0,227.0
18:00:23,243.0,252.0,227.0
18:00:23,243.0,252.0,227.0
18:00:23,234.0,256.0,228.0
18:00:23,234.0,256.0,228.0
18:00:23,234.0,256.0,228.0
18:00:23,234.0,256.0,228.0
18:00:23,342.0,256.0,227.0
18:00:23,342.0,256.0,227.0
18:00:23,342.0,256.0,227.0
18:00:23,342.0,256.0,227.0
18:00:23,190.0,254.0,228.0
18:00:23,190.0,254.0,228.0
18:00:23,190.0,254.0,228.0
18:00:23,190.0,254.0,228.0
18:00:23,206.0,254.0,227.0
18:00:23,206.0,254.0,227.0
18:00:23,206.0,254.0,227.0
18:00:23,206.0,254.0,227.0
18:00:23,231.0,254.0,227.0
18:00:23,231.0,254.0,227.0
18:00:23,231.0,254.0,227.0
18:00:23,231.0,254.0,227.0
18:00:23,227.0,255.0,226.0
18:00:23,227.0,255.0,226.0
18:00:23,227.0,255.0,226.0
18:00:23,227.0,255.0,226.0
18:00:23,410.0,256.0,227.0
18:00:23,410.0,256.0,227.0
18:00:23,410.0,256.0,227.0
18:00:23,410.0,256.0,227.0
18:00:23,2232.0,256.0,228.0
18:00:23,2232.0,256.0,228.0
18:00:23,2232.0,256.0,228.0
18:00:23,2232.0,256.0,228.0
18:00:23,80.0,256.0,226.0
18:00:23,80.0,256.0,226.0
18:00:23,80.0,256.0,226.0
18:00:23,80.0,256.0,226.0
18:00:23,103.0,255.0,229.0
18:00:23,103.0,255.0,229.0
18:00:23,103.0,255.0,229.0
18:00:23,103.0,255.0,229.0
18:00:23,124.0,256.0,227.0
18:00:23,124.0,256.0,227.0
18:00:23,124.0,256.0,227.0
18:00:23,124.0,256.0,227.0
18:00:23,186.0,257.0,227.0
18:00:23,186.0,257.0,227.0
18:00:23,186.0,257.0,227.0
18:00:23,186.0,257.0,227.0
18:00:23,149.0,256.0,228.0
18:00:23,149.0,256.0,228.0
18:00:23,149.0,256.0,228.0
18:00:23,149.0,256.0,228.0
18:00:23,260.0,256.0,227.0
18:00:23,260.0,256.0,227.0
18:00:23,260.0,256.0,227.0
18:00:23,260.0,256.0,227.0
18:00:23,263.0,257.0,227.0
18:00:23,263.0,257.0,227.0
18:00:23,263.0,257.0,227.0
18:00:23,263.0,257.0,227.0
18:00:23,370.0,256.0,228.0
18:00:23,370.0,256.0,228.0
18:00:23,370.0,256.0,228.0
18:00:23,370.0,256.0,228.0
18:00:23,483.0,256.0,228.0
18:00:23,483.0,256.0,228.0
18:00:23,483.0,256.0,228.0
18:00:23,483.0,256.0,228.0
18:00:23,589.0,258.0,227.0
18:00:23,589.0,258.0,227.0
18:00:23,589.0,258.0,227.0
18:00:23,589.0,258.0,227.0
18:00:23,545.0,257.0,227.0
18:00:23,545.0,257.0,227.0
18:00:23,545.0,257.0,227.0
18:00:23,545.0,257.0,227.0
18:00:23,394.0,257.0,227.0
18:00:23,394.0,257.0,227.0
18:00:23,394.0,257.0,227.0
18:00:23,394.0,257.0,227.0
18:00:23,202.0,256.0,226.0
18:00:23,202.0,256.0,226.0
18:00:23,202.0,256.0,226.0
18:00:23,202.0,256.0,226.0
18:00:23,179.0,257.0,227.0
18:00:23,179.0,257.0,227.0
18:00:23,179.0,257.0,227.0
18:00:23,179.0,257.0,227.0
18:00:23,170.0,257.0,227.0
18:00:23,170.0,257.0,227.0
18:00:23,170.0,257.0,227.0
18:00:23,170.0,257.0,227.0
18:00:23,137.0,256.0,227.0
18:00:23,137.0,256.0,227.0
18:00:23,137.0,256.0,227.0
18:00:23,137.0,256.0,227.0
18:00:23,127.0,258.0,228.0
18:00:23,127.0,258.0,228.0
18:00:23,127.0,258.0,228.0
18:00:23,127.0,258.0,228.0
18:00:23,163.0,255.0,227.0
18:00:23,163.0,255.0,227.0
18:00:23,163.0,255.0,227.0
18:00:23,163.0,255.0,227.0
18:00:23,171.0,257.0,227.0
18:00:23,171.0,257.0,227.0
18:00:23,171.0,257.0,227.0
18:00:23,171.0,257.0,227.0
18:00:23,196.0,258.0,226.0
18:00:23,196.0,258.0,226.0
18:00:23,196.0,258.0,226.0
18:00:23,196.0,258.0,226.0
18:00:23,269.0,256.0,226.0
18:00:23,269.0,256.0,226.0
18:00:23,269.0,256.0,226.0
18:00:23,269.0,256.0,226.0
18:00:23,271.0,257.0,226.0
18:00:23,271.0,257.0,226.0
18:00:23,271.0,257.0,226.0
18:00:23,271.0,257.0,226.0
18:00:23,220.0,257.0,223.0
18:00:23,220.0,257.0,223.0
18:00:23,220.0,257.0,223.0
18:00:23,220.0,257.0,223.0
18:00:23,265.0,255.0,223.0
18:00:23,265.0,255.0,223.0
18:00:23,265.0,255.0,223.0
18:00:23,265.0,255.0,223.0
18:00:23,207.0,256.0,223.0
18:00:23,207.0,256.0,223.0
18:00:23,207.0,256.0,223.0
18:00:23,207.0,256.0,223.0
18:00:23,231.0,258.0,223.0
18:00:23,231.0,258.0,223.0
18:00:23,231.0,258.0,223.0
18:00:23,231.0,258.0,223.0
18:00:23,254.0,257.0,228.0
18:00:23,254.0,257.0,228.0
18:00:23,254.0,257.0,228.0
18:00:23,254.0,257.0,228.0
18:00:23,1012.0,257.0,228.0
18:00:23,1012.0,257.0,228.0
18:00:23,1012.0,257.0,228.0
18:00:23,1012.0,257.0,228.0
18:00:23,1322.0,257.0,227.0
18:00:23,1322.0,257.0,227.0
18:00:23,1322.0,257.0,227.0
18:00:23,1322.0,257.0,227.0
18:00:23,77.0,255.0,228.0
18:00:23,77.0,255.0,228.0
18:00:23,77.0,255.0,228.0
18:00:23,77.0,255.0,228.0
18:00:23,190.0,256.0,228.0
18:00:23,190.0,256.0,228.0
18:00:23,190.0,256.0,228.0
18:00:23,190.0,256.0,228.0
18:00:24,83.0,257.0,227.0
18:00:24,83.0,257.0,227.0
18:00:24,83.0,257.0,227.0
18:00:24,83.0,257.0,227.0
18:00:24,190.0,253.0,227.0
18:00:24,190.0,253.0,227.0
18:00:24,190.0,253.0,227.0
18:00:24,190.0,253.0,227.0
18:00:24,207.0,252.0,227.0
18:00:24,207.0,252.0,227.0
18:00:24,207.0,252.0,227.0
18:00:24,207.0,252.0,227.0
18:00:24,266.0,253.0,226.0
18:00:24,266.0,253.0,226.0
18:00:24,266.0,253.0,226.0
18:00:24,266.0,253.0,226.0
18:00:24,337.0,254.0,229.0
18:00:24,337.0,254.0,229.0
18:00:24,337.0,254.0,229.0
18:00:24,337.0,254.0,229.0
18:00:24,438.0,255.0,228.0
18:00:24,438.0,255.0,228.0
18:00:24,438.0,255.0,228.0
18:00:24,438.0,255.0,228.0
18:00:24,538.0,256.0,227.0
18:00:24,538.0,256.0,227.0
18:00:24,538.0,256.0,227.0
18:00:24,538.0,256.0,227.0
18:00:24,615.0,257.0,227.0
18:00:24,615.0,257.0,227.0
18:00:24,615.0,257.0,227.0
18:00:24,615.0,257.0,227.0
18:00:24,484.0,257.0,225.0
18:00:24,484.0,257.0,225.0
18:00:24,484.0,257.0,225.0
18:00:24,484.0,257.0,225.0
18:00:24,296.0,256.0,224.0
18:00:24,296.0,256.0,224.0
18:00:24,296.0,256.0,224.0
18:00:24,296.0,256.0,224.0
18:00:24,187.0,256.0,225.0
18:00:24,187.0,256.0,225.0
18:00:24,187.0,256.0,225.0
18:00:24,187.0,256.0,225.0
18:00:24,121.0,257.0,226.0
18:00:24,121.0,257.0,226.0
18:00:24,121.0,257.0,226.0
18:00:24,121.0,257.0,226.0
18:00:24,135.0,257.0,225.0
18:00:24,135.0,257.0,225.0
18:00:24,135.0,257.0,225.0
18:00:24,135.0,257.0,225.0
18:00:24,155.0,257.0,228.0
18:00:24,155.0,257.0,228.0
18:00:24,155.0,257.0,228.0
18:00:24,155.0,257.0,228.0
18:00:24,124.0,257.0,228.0
18:00:24,124.0,257.0,228.0
18:00:24,124.0,257.0,228.0
18:00:24,124.0,257.0,228.0
18:00:24,180.0,258.0,227.0
18:00:24,180.0,258.0,227.0
18:00:24,180.0,258.0,227.0
18:00:24,180.0,258.0,227.0
18:00:24,153.0,256.0,228.0
18:00:24,153.0,256.0,228.0
18:00:24,153.0,256.0,228.0
18:00:24,153.0,256.0,228.0
18:00:24,299.0,256.0,228.0
18:00:24,299.0,256.0,228.0
18:00:24,299.0,256.0,228.0
18:00:24,299.0,256.0,228.0
18:00:24,301.0,253.0,228.0
18:00:24,301.0,253.0,228.0
18:00:24,301.0,253.0,228.0
18:00:24,301.0,253.0,228.0
18:00:24,300.0,255.0,228.0
18:00:24,300.0,255.0,228.0
18:00:24,300.0,255.0,228.0
18:00:24,300.0,255.0,228.0
18:00:24,226.0,253.0,228.0
18:00:24,226.0,253.0,228.0
18:00:24,226.0,253.0,228.0
18:00:24,226.0,253.0,228.0
18:00:24,229.0,253.0,229.0
18:00:24,229.0,253.0,229.0
18:00:24,229.0,253.0,229.0
18:00:24,229.0,253.0,229.0
18:00:24,220.0,256.0,227.0
18:00:24,220.0,256.0,227.0
18:00:24,220.0,256.0,227.0
18:00:24,220.0,256.0,227.0
18:00:24,182.0,256.0,230.0
18:00:24,182.0,256.0,230.0
18:00:24,182.0,256.0,230.0
18:00:24,182.0,256.0,230.0
18:00:24,414.0,257.0,228.0
18:00:24,414.0,257.0,228.0
18:00:24,414.0,257.0,228.0
18:00:24,414.0,257.0,228.0
18:00:24,2185.0,257.0,228.0
18:00:24,2185.0,257.0,228.0
18:00:24,2185.0,257.0,228.0
18:00:24,2185.0,257.0,228.0
18:00:24,123.0,258.0,229.0
18:00:24,123.0,258.0,229.0
18:00:24,123.0,258.0,229.0
18:00:24,123.0,258.0,229.0
18:00:24,103.0,257.0,228.0
18:00:24,103.0,257.0,228.0
18:00:24,103.0,257.0,228.0
18:00:24,103.0,257.0,228.0
18:00:24,130.0,258.0,227.0
18:00:24,130.0,258.0,227.0
18:00:24,130.0,258.0,227.0
18:00:24,130.0,258.0,227.0
18:00:24,162.0,259.0,229.0
18:00:24,162.0,259.0,229.0
18:00:24,162.0,259.0,229.0
18:00:24,162.0,259.0,229.0
18:00:24,219.0,257.0,229.0
18:00:24,219.0,257.0,229.0
18:00:24,219.0,257.0,229.0
18:00:24,219.0,257.0,229.0
18:00:24,242.0,258.0,227.0
18:00:24,242.0,258.0,227.0
18:00:24,242.0,258.0,227.0
18:00:24,242.0,258.0,227.0
18:00:24,255.0,258.0,230.0
18:00:24,255.0,258.0,230.0
18:00:24,255.0,258.0,230.0
18:00:24,255.0,258.0,230.0
18:00:24,372.0,257.0,229.0
18:00:24,372.0,257.0,229.0
18:00:24,372.0,257.0,229.0
18:00:24,372.0,257.0,229.0
18:00:24,478.0,258.0,228.0
18:00:24,478.0,258.0,228.0
18:00:24,478.0,258.0,228.0
18:00:24,478.0,258.0,228.0
18:00:24,584.0,258.0,229.0
18:00:24,584.0,258.0,229.0
18:00:24,584.0,258.0,229.0
18:00:24,584.0,258.0,229.0
18:00:24,533.0,258.0,229.0
18:00:24,533.0,258.0,229.0
18:00:24,533.0,258.0,229.0
18:00:24,533.0,258.0,229.0
18:00:24,398.0,258.0,229.0
18:00:24,398.0,258.0,229.0
18:00:24,398.0,258.0,229.0
18:00:24,398.0,258.0,229.0
18:00:24,224.0,258.0,229.0
18:00:24,224.0,258.0,229.0
18:00:24,224.0,258.0,229.0
18:00:24,224.0,258.0,229.0
18:00:24,159.0,257.0,228.0
18:00:24,159.0,257.0,228.0
18:00:24,159.0,257.0,228.0
18:00:24,159.0,257.0,228.0
18:00:24,143.0,258.0,229.0
18:00:24,143.0,258.0,229.0
18:00:24,143.0,258.0,229.0
18:00:24,143.0,258.0,229.0
18:00:24,124.0,258.0,229.0
18:00:24,124.0,258.0,229.0
18:00:24,124.0,258.0,229.0
18:00:24,124.0,258.0,229.0
18:00:24,125.0,258.0,228.0
18:00:24,125.0,258.0,228.0
18:00:24,125.0,258.0,228.0
18:00:24,125.0,258.0,228.0
18:00:24,181.0,258.0,229.0
18:00:24,181.0,258.0,229.0
18:00:24,181.0,258.0,229.0
18:00:24,181.0,258.0,229.0
18:00:24,218.0,257.0,230.0
18:00:24,218.0,257.0,230.0
18:00:24,218.0,257.0,230.0
18:00:24,218.0,257.0,230.0
18:00:24,191.0,257.0,227.0
18:00:24,191.0,257.0,227.0
18:00:24,191.0,257.0,227.0
18:00:24,191.0,257.0,227.0
18:00:24,280.0,258.0,229.0
18:00:24,280.0,258.0,229.0
18:00:24,280.0,258.0,229.0
18:00:24,280.0,258.0,229.0
18:00:24,365.0,259.0,230.0
18:00:24,365.0,259.0,230.0
18:00:24,365.0,259.0,230.0
18:00:24,365.0,259.0,230.0
18:00:24,269.0,260.0,229.0
18:00:24,269.0,260.0,229.0
18:00:24,269.0,260.0,229.0
18:00:24,269.0,260.0,229.0
18:00:24,223.0,257.0,229.0
18:00:24,223.0,257.0,229.0
18:00:24,223.0,257.0,229.0
18:00:24,223.0,257.0,229.0
18:00:24,217.0,258.0,229.0
18:00:25,217.0,258.0,229.0
18:00:25,217.0,258.0,229.0
18:00:25,217.0,258.0,229.0
18:00:25,241.0,259.0,229.0
18:00:25,241.0,259.0,229.0
18:00:25,241.0,259.0,229.0
18:00:25,241.0,259.0,229.0
18:00:25,239.0,258.0,229.0
18:00:25,239.0,258.0,229.0
18:00:25,239.0,258.0,229.0
18:00:25,239.0,258.0,229.0
18:00:25,1233.0,257.0,229.0
18:00:25,1233.0,257.0,229.0
18:00:25,1233.0,257.0,229.0
18:00:25,1233.0,257.0,229.0
18:00:25,778.0,259.0,230.0
18:00:25,778.0,259.0,230.0
18:00:25,778.0,259.0,230.0
18:00:25,778.0,259.0,230.0
18:00:25,58.0,258.0,228.0
18:00:25,58.0,258.0,228.0
18:00:25,58.0,258.0,228.0
18:00:25,58.0,258.0,228.0
18:00:25,142.0,257.0,228.0
18:00:25,142.0,257.0,228.0
18:00:25,142.0,257.0,228.0
18:00:25,142.0,257.0,228.0
18:00:25,147.0,260.0,228.0
18:00:25,147.0,260.0,228.0
18:00:25,147.0,260.0,228.0
18:00:25,147.0,260.0,228.0
18:00:25,139.0,258.0,229.0
18:00:25,139.0,258.0,229.0
18:00:25,139.0,258.0,229.0
18:00:25,139.0,258.0,229.0
18:00:25,163.0,257.0,228.0
18:00:25,163.0,257.0,228.0
18:00:25,163.0,257.0,228.0
18:00:25,163.0,257.0,228.0
18:00:25,263.0,259.0,230.0
18:00:25,263.0,259.0,230.0
18:00:25,263.0,259.0,230.0
18:00:25,263.0,259.0,230.0
18:00:25,298.0,258.0,229.0
18:00:25,298.0,258.0,229.0
18:00:25,298.0,258.0,229.0
18:00:25,298.0,258.0,229.0
18:00:25,429.0,257.0,229.0
18:00:25,429.0,257.0,229.0
18:00:25,429.0,257.0,229.0
18:00:25,429.0,257.0,229.0
18:00:25,562.0,258.0,229.0
18:00:25,562.0,258.0,229.0
18:00:25,562.0,258.0,229.0
18:00:25,562.0,258.0,229.0
18:00:25,587.0,258.0,228.0
18:00:25,587.0,258.0,228.0
18:00:25,587.0,258.0,228.0
18:00:25,587.0,258.0,228.0
18:00:25,443.0,257.0,228.0
18:00:25,443.0,257.0,228.0
18:00:25,443.0,257.0,228.0
18:00:25,443.0,257.0,228.0
18:00:25,264.0,258.0,229.0
18:00:25,264.0,258.0,229.0
18:00:25,264.0,258.0,229.0
18:00:25,264.0,258.0,229.0
18:00:25,135.0,258.0,229.0
18:00:25,135.0,258.0,229.0
18:00:25,135.0,258.0,229.0
18:00:25,135.0,258.0,229.0
18:00:25,129.0,258.0,228.0
18:00:25,129.0,258.0,228.0
18:00:25,129.0,258.0,228.0
18:00:25,129.0,258.0,228.0
18:00:25,113.0,258.0,229.0
18:00:25,113.0,258.0,229.0
18:00:25,113.0,258.0,229.0
18:00:25,113.0,258.0,229.0
18:00:25,160.0,258.0,228.0
18:00:25,160.0,258.0,228.0
18:00:25,160.0,258.0,228.0
18:00:25,160.0,258.0,228.0
18:00:25,151.0,257.0,230.0
18:00:25,151.0,257.0,230.0
18:00:25,151.0,257.0,230.0
18:00:25,151.0,257.0,230.0
18:00:25,176.0,259.0,229.0
18:00:25,176.0,259.0,229.0
18:00:25,176.0,259.0,229.0
18:00:25,176.0,259.0,229.0
18:00:25,226.0,256.0,229.0
18:00:25,226.0,256.0,229.0
18:00:25,226.0,256.0,229.0
18:00:25,226.0,256.0,229.0
18:00:25,270.0,258.0,230.0
18:00:25,270.0,258.0,230.0
18:00:25,270.0,258.0,230.0
18:00:25,270.0,258.0,230.0
18:00:25,255.0,258.0,229.0
18:00:25,255.0,258.0,229.0
18:00:25,255.0,258.0,229.0
18:00:25,255.0,258.0,229.0
18:00:25,254.0,257.0,229.0
18:00:25,254.0,257.0,229.0
18:00:25,254.0,257.0,229.0
18:00:25,254.0,257.0,229.0
18:00:25,218.0,258.0,229.0
18:00:25,218.0,258.0,229.0
18:00:25,218.0,258.0,229.0
18:00:25,218.0,258.0,229.0
18:00:25,199.0,258.0,229.0
18:00:25,199.0,258.0,229.0
18:00:25,199.0,258.0,229.0
18:00:25,199.0,258.0,229.0
18:00:25,224.0,258.0,230.0
18:00:25,224.0,258.0,230.0
18:00:25,224.0,258.0,230.0
18:00:25,224.0,258.0,230.0
18:00:25,212.0,258.0,229.0
18:00:25,212.0,258.0,229.0
18:00:25,212.0,258.0,229.0
18:00:25,212.0,258.0,229.0
18:00:25,635.0,258.0,229.0
18:00:25,635.0,258.0,229.0
18:00:25,635.0,258.0,229.0
18:00:25,635.0,258.0,229.0
18:00:25,2047.0,260.0,229.0
18:00:25,2047.0,260.0,229.0
18:00:25,2047.0,260.0,229.0
18:00:25,2047.0,260.0,229.0
18:00:25,41.0,258.0,229.0
18:00:25,41.0,258.0,229.0
18:00:25,41.0,258.0,229.0
18:00:25,41.0,258.0,229.0
18:00:25,124.0,257.0,229.0
18:00:25,124.0,257.0,229.0
18:00:25,124.0,257.0,229.0
18:00:25,124.0,257.0,229.0
18:00:25,128.0,259.0,229.0
18:00:25,128.0,259.0,229.0
18:00:25,128.0,259.0,229.0
18:00:25,128.0,259.0,229.0
18:00:25,155.0,259.0,229.0
18:00:25,155.0,259.0,229.0
18:00:25,155.0,259.0,229.0
18:00:25,155.0,259.0,229.0
18:00:25,211.0,256.0,229.0
18:00:25,211.0,256.0,229.0
18:00:25,211.0,256.0,229.0
18:00:25,211.0,256.0,229.0
18:00:25,224.0,258.0,229.0
18:00:25,224.0,258.0,229.0
18:00:25,224.0,258.0,229.0
18:00:25,224.0,258.0,229.0
18:00:25,269.0,257.0,230.0
18:00:25,269.0,257.0,230.0
18:00:25,269.0,257.0,230.0
18:00:25,269.0,257.0,230.0
18:00:25,407.0,258.0,229.0
18:00:25,407.0,258.0,229.0
18:00:25,407.0,258.0,229.0
18:00:25,407.0,258.0,229.0
18:00:25,528.0,259.0,227.0
18:00:25,528.0,259.0,227.0
18:00:25,528.0,259.0,227.0
18:00:25,528.0,259.0,227.0
18:00:25,571.0,259.0,228.0
18:00:25,571.0,259.0,228.0
18:00:25,571.0,259.0,228.0
18:00:25,571.0,259.0,228.0
18:00:25,492.0,257.0,229.0
18:00:25,492.0,257.0,229.0
18:00:25,492.0,257.0,229.0
18:00:25,492.0,257.0,229.0
18:00:25,313.0,257.0,228.0
18:00:25,313.0,257.0,228.0
18:00:25,313.0,257.0,228.0
18:00:25,313.0,257.0,228.0
18:00:25,169.0,258.0,229.0
18:00:25,169.0,258.0,229.0
18:00:25,169.0,258.0,229.0
18:00:25,169.0,258.0,229.0
18:00:25,141.0,258.0,228.0
18:00:25,141.0,258.0,228.0
18:00:25,141.0,258.0,228.0
18:00:25,141.0,258.0,228.0
18:00:25,152.0,258.0,229.0
18:00:25,152.0,258.0,229.0
18:00:25,152.0,258.0,229.0
18:00:25,152.0,258.0,229.0
18:00:25,134.0,259.0,227.0
18:00:25,134.0,259.0,227.0
18:00:25,134.0,259.0,227.0
18:00:25,134.0,259.0,227.0
18:00:25,215.0,257.0,230.0
18:00:25,215.0,257.0,230.0
18:00:25,215.0,257.0,230.0
18:00:25,215.0,257.0,230.0
18:00:25,175.0,257.0,230.0
18:00:25,175.0,257.0,230.0
18:00:26,175.0,257.0,230.0
18:00:26,175.0,257.0,230.0
18:00:26,207.0,258.0,229.0
18:00:26,207.0,258.0,229.0
18:00:26,207.0,258.0,229.0
18:00:26,207.0,258.0,229.0
18:00:26,234.0,258.0,229.0
18:00:26,234.0,258.0,229.0
18:00:26,234.0,258.0,229.0
18:00:26,234.0,258.0,229.0
18:00:26,230.0,258.0,229.0
18:00:26,230.0,258.0,229.0
18:00:26,230.0,258.0,229.0
18:00:26,230.0,258.0,229.0
18:00:26,331.0,259.0,229.0
18:00:26,331.0,259.0,229.0
18:00:26,331.0,259.0,229.0
18:00:26,331.0,259.0,229.0
18:00:26,242.0,258.0,229.0
18:00:26,242.0,258.0,229.0
18:00:26,242.0,258.0,229.0
18:00:26,242.0,258.0,229.0
18:00:26,220.0,257.0,229.0
18:00:26,220.0,257.0,229.0
18:00:26,220.0,257.0,229.0
18:00:26,220.0,257.0,229.0
18:00:26,222.0,258.0,230.0
18:00:26,222.0,258.0,230.0
18:00:26,222.0,258.0,230.0
18:00:26,222.0,258.0,230.0
18:00:26,191.0,258.0,230.0
18:00:26,191.0,258.0,230.0
18:00:26,191.0,258.0,230.0
18:00:26,191.0,258.0,230.0
18:00:26,239.0,258.0,230.0
18:00:26,239.0,258.0,230.0
18:00:26,239.0,258.0,230.0
18:00:26,239.0,258.0,230.0
18:00:26,1320.0,259.0,227.0
18:00:26,1320.0,259.0,227.0
18:00:26,1320.0,259.0,227.0
18:00:26,1320.0,259.0,227.0
18:00:26,853.0,258.0,230.0
18:00:26,853.0,258.0,230.0
18:00:26,853.0,258.0,230.0
18:00:26,853.0,258.0,230.0
18:00:26,57.0,258.0,229.0
18:00:26,57.0,258.0,229.0
18:00:26,57.0,258.0,229.0
18:00:26,57.0,258.0,229.0
18:00:26,72.0,259.0,228.0
18:00:26,72.0,259.0,228.0
18:00:26,72.0,259.0,228.0
18:00:26,72.0,259.0,228.0
18:00:26,136.0,258.0,229.0
18:00:26,136.0,258.0,229.0
18:00:26,136.0,258.0,229.0
18:00:26,136.0,258.0,229.0
18:00:26,149.0,258.0,230.0
18:00:26,149.0,258.0,230.0
18:00:26,149.0,258.0,230.0
18:00:26,149.0,258.0,230.0
18:00:26,240.0,258.0,228.0
18:00:26,240.0,258.0,228.0
18:00:26,240.0,258.0,228.0
18:00:26,240.0,258.0,228.0
18:00:26,275.0,258.0,230.0
18:00:26,275.0,258.0,230.0
18:00:26,275.0,258.0,230.0
18:00:26,275.0,258.0,230.0
18:00:26,347.0,259.0,230.0
18:00:26,347.0,259.0,230.0
18:00:26,347.0,259.0,230.0
18:00:26,347.0,259.0,230.0
18:00:26,426.0,258.0,229.0
18:00:26,426.0,258.0,229.0
18:00:26,426.0,258.0,229.0
18:00:26,426.0,258.0,229.0
18:00:26,583.0,259.0,228.0
18:00:26,583.0,259.0,228.0
18:00:26,583.0,259.0,228.0
18:00:26,583.0,259.0,228.0
18:00:26,630.0,259.0,229.0
18:00:26,630.0,259.0,229.0
18:00:26,630.0,259.0,229.0
18:00:26,630.0,259.0,229.0
18:00:26,486.0,258.0,229.0
18:00:26,486.0,258.0,229.0
18:00:26,486.0,258.0,229.0
18:00:26,486.0,258.0,229.0
18:00:26,273.0,258.0,228.0
18:00:26,273.0,258.0,228.0
18:00:26,273.0,258.0,228.0
18:00:26,273.0,258.0,228.0
18:00:26,190.0,258.0,229.0
18:00:26,190.0,258.0,229.0
18:00:26,190.0,258.0,229.0
18:00:26,190.0,258.0,229.0
18:00:26,193.0,259.0,229.0
18:00:26,193.0,259.0,229.0
18:00:26,193.0,259.0,229.0
18:00:26,193.0,259.0,229.0
18:00:26,119.0,258.0,229.0
18:00:26,119.0,258.0,229.0
18:00:26,119.0,258.0,229.0
18:00:26,119.0,258.0,229.0
18:00:26,110.0,258.0,229.0
18:00:26,110.0,258.0,229.0
18:00:26,110.0,258.0,229.0
18:00:26,110.0,258.0,229.0
18:00:26,154.0,258.0,228.0
18:00:26,154.0,258.0,228.0
18:00:26,154.0,258.0,228.0
18:00:26,154.0,258.0,228.0
18:00:26,140.0,258.0,229.0
18:00:26,140.0,258.0,229.0
18:00:26,140.0,258.0,229.0
18:00:26,140.0,258.0,229.0
18:00:26,171.0,258.0,229.0
18:00:26,171.0,258.0,229.0
18:00:26,171.0,258.0,229.0
18:00:26,171.0,258.0,229.0
18:00:26,270.0,260.0,229.0
18:00:26,270.0,260.0,229.0
18:00:26,270.0,260.0,229.0
18:00:26,270.0,260.0,229.0
18:00:26,273.0,257.0,229.0
18:00:26,273.0,257.0,229.0
18:00:26,273.0,257.0,229.0
18:00:26,273.0,257.0,229.0
18:00:26,281.0,259.0,230.0
18:00:26,281.0,259.0,230.0
18:00:26,281.0,259.0,230.0
18:00:26,281.0,259.0,230.0
18:00:26,352.0,258.0,229.0
18:00:26,352.0,258.0,229.0
18:00:26,352.0,258.0,229.0
18:00:26,352.0,258.0,229.0
18:00:26,193.0,258.0,229.0
18:00:26,193.0,258.0,229.0
18:00:26,193.0,258.0,229.0
18:00:26,193.0,258.0,229.0
18:00:26,221.0,258.0,230.0
18:00:26,221.0,258.0,230.0
18:00:26,221.0,258.0,230.0
18:00:26,221.0,258.0,230.0
18:00:26,235.0,258.0,228.0
18:00:26,235.0,258.0,228.0
18:00:26,235.0,258.0,228.0
18:00:26,235.0,258.0,228.0
18:00:26,263.0,258.0,228.0
18:00:26,263.0,258.0,228.0
18:00:26,263.0,258.0,228.0
18:00:26,263.0,258.0,228.0
18:00:26,489.0,259.0,229.0
18:00:26,489.0,259.0,229.0
18:00:26,489.0,259.0,229.0
18:00:26,489.0,259.0,229.0
18:00:26,2348.0,258.0,229.0
18:00:26,2348.0,258.0,229.0
18:00:26,2348.0,258.0,229.0
18:00:26,2348.0,258.0,229.0
18:00:26,104.0,258.0,230.0
18:00:26,104.0,258.0,230.0
18:00:26,104.0,258.0,230.0
18:00:26,104.0,258.0,230.0
18:00:26,86.0,259.0,230.0
18:00:26,86.0,259.0,230.0
18:00:26,86.0,259.0,230.0
18:00:26,86.0,259.0,230.0
18:00:26,132.0,258.0,231.0
18:00:26,132.0,258.0,231.0
18:00:26,132.0,258.0,231.0
18:00:26,132.0,258.0,231.0
18:00:26,173.0,258.0,231.0
18:00:26,173.0,258.0,231.0
18:00:26,173.0,258.0,231.0
18:00:26,173.0,258.0,231.0
18:00:26,243.0,259.0,230.0
18:00:26,243.0,259.0,230.0
18:00:26,243.0,259.0,230.0
18:00:26,243.0,259.0,230.0
18:00:26,229.0,259.0,231.0
18:00:26,229.0,259.0,231.0
18:00:26,229.0,259.0,231.0
18:00:26,229.0,259.0,231.0
18:00:26,327.0,258.0,232.0
18:00:26,327.0,258.0,232.0
18:00:26,327.0,258.0,232.0
18:00:26,327.0,258.0,232.0
18:00:26,385.0,259.0,231.0
18:00:26,385.0,259.0,231.0
18:00:26,385.0,259.0,231.0
18:00:26,385.0,259.0,231.0
18:00:26,553.0,258.0,231.0
18:00:26,553.0,258.0,231.0
18:00:26,553.0,258.0,231.0
18:00:26,553.0,258.0,231.0
18:00:26,642.0,258.0,231.0
18:00:26,642.0,258.0,231.0
18:00:26,642.0,258.0,231.0
18:00:27,642.0,258.0,231.0
18:00:27,592.0,258.0,230.0
18:00:27,592.0,258.0,230.0
18:00:27,592.0,258.0,230.0
18:00:27,592.0,258.0,230.0
18:00:27,380.0,258.0,229.0
18:00:27,380.0,258.0,229.0
18:00:27,380.0,258.0,229.0
18:00:27,380.0,258.0,229.0
18:00:27,187.0,259.0,229.0
18:00:27,187.0,259.0,229.0
18:00:27,187.0,259.0,229.0
18:00:27,187.0,259.0,229.0
18:00:27,175.0,259.0,229.0
18:00:27,175.0,259.0,229.0
18:00:27,175.0,259.0,229.0
18:00:27,175.0,259.0,229.0
18:00:27,186.0,261.0,229.0
18:00:27,186.0,261.0,229.0
18:00:27,186.0,261.0,229.0
18:00:27,186.0,261.0,229.0
18:00:27,136.0,262.0,228.0
18:00:27,136.0,262.0,228.0
18:00:27,136.0,262.0,228.0
18:00:27,136.0,262.0,228.0
18:00:27,187.0,262.0,229.0
18:00:27,187.0,262.0,229.0
18:00:27,187.0,262.0,229.0
18:00:27,187.0,262.0,229.0
18:00:27,150.0,261.0,230.0
18:00:27,150.0,261.0,230.0
18:00:27,150.0,261.0,230.0
18:00:27,150.0,261.0,230.0
18:00:27,183.0,260.0,228.0
18:00:27,183.0,260.0,228.0
18:00:27,183.0,260.0,228.0
18:00:27,183.0,260.0,228.0
18:00:27,230.0,260.0,229.0
18:00:27,230.0,260.0,229.0
18:00:27,230.0,260.0,229.0
18:00:27,230.0,260.0,229.0
18:00:27,302.0,259.0,229.0
18:00:27,302.0,259.0,229.0
18:00:27,302.0,259.0,229.0
18:00:27,302.0,259.0,229.0
18:00:27,312.0,257.0,228.0
18:00:27,312.0,257.0,228.0
18:00:27,312.0,257.0,228.0
18:00:27,312.0,257.0,228.0
18:00:27,322.0,259.0,229.0
18:00:27,322.0,259.0,229.0
18:00:27,322.0,259.0,229.0
18:00:27,322.0,259.0,229.0
18:00:27,235.0,258.0,228.0
18:00:27,235.0,258.0,228.0
18:00:27,235.0,258.0,228.0
18:00:27,235.0,258.0,228.0
18:00:27,257.0,258.0,229.0
18:00:27,257.0,258.0,229.0
18:00:27,257.0,258.0,229.0
18:00:27,257.0,258.0,229.0
18:00:27,261.0,258.0,229.0
18:00:27,261.0,258.0,229.0
18:00:27,261.0,258.0,229.0
18:00:27,261.0,258.0,229.0
18:00:27,244.0,257.0,228.0
18:00:27,244.0,257.0,228.0
18:00:27,244.0,257.0,228.0
18:00:27,244.0,257.0,228.0
18:00:27,400.0,257.0,229.0
18:00:27,400.0,257.0,229.0
18:00:27,400.0,257.0,229.0
18:00:27,400.0,257.0,229.0
18:00:27,1974.0,258.0,228.0
18:00:27,1974.0,258.0,228.0
18:00:27,1974.0,258.0,228.0
18:00:27,1974.0,258.0,228.0
18:00:27,202.0,258.0,229.0
18:00:27,202.0,258.0,229.0
18:00:27,202.0,258.0,229.0
18:00:27,202.0,258.0,229.0
18:00:27,157.0,257.0,231.0
18:00:27,157.0,257.0,231.0
18:00:27,157.0,257.0,231.0
18:00:27,157.0,257.0,231.0
18:00:27,164.0,259.0,230.0
18:00:27,164.0,259.0,230.0
18:00:27,164.0,259.0,230.0
18:00:27,164.0,259.0,230.0
18:00:27,177.0,258.0,232.0
18:00:27,177.0,258.0,232.0
18:00:27,177.0,258.0,232.0
18:00:27,177.0,258.0,232.0
18:00:27,199.0,257.0,232.0
18:00:27,199.0,257.0,232.0
18:00:27,199.0,257.0,232.0
18:00:27,199.0,257.0,232.0
18:00:27,244.0,259.0,233.0
18:00:27,244.0,259.0,233.0
18:00:27,244.0,259.0,233.0
18:00:27,244.0,259.0,233.0
18:00:27,282.0,259.0,231.0
18:00:27,282.0,259.0,231.0
18:00:27,282.0,259.0,231.0
18:00:27,282.0,259.0,231.0
18:00:27,383.0,257.0,229.0
18:00:27,383.0,257.0,229.0
18:00:27,383.0,257.0,229.0
18:00:27,383.0,257.0,229.0
18:00:27,513.0,257.0,229.0
18:00:27,513.0,257.0,229.0
18:00:27,513.0,257.0,229.0
18:00:27,513.0,257.0,229.0
18:00:27,565.0,258.0,228.0
18:00:27,565.0,258.0,228.0
18:00:27,565.0,258.0,228.0
18:00:27,565.0,258.0,228.0
18:00:27,605.0,258.0,228.0
18:00:27,605.0,258.0,228.0
18:00:27,605.0,258.0,228.0
18:00:27,605.0,258.0,228.0
18:00:27,437.0,260.0,228.0
18:00:27,437.0,260.0,228.0
18:00:27,437.0,260.0,228.0
18:00:27,437.0,260.0,228.0
18:00:27,222.0,260.0,228.0
18:00:27,222.0,260.0,228.0
18:00:27,222.0,260.0,228.0
18:00:27,222.0,260.0,228.0
18:00:27,218.0,260.0,228.0
18:00:27,218.0,260.0,228.0
18:00:27,218.0,260.0,228.0
18:00:27,218.0,260.0,228.0
18:00:27,168.0,260.0,228.0
18:00:27,168.0,260.0,228.0
18:00:27,168.0,260.0,228.0
18:00:27,168.0,260.0,228.0
18:00:27,150.0,260.0,229.0
18:00:27,150.0,260.0,229.0
18:00:27,150.0,260.0,229.0
18:00:27,150.0,260.0,229.0
18:00:27,182.0,259.0,227.0
18:00:27,182.0,259.0,227.0
18:00:27,182.0,259.0,227.0
18:00:27,182.0,259.0,227.0
18:00:27,235.0,257.0,229.0
18:00:27,235.0,257.0,229.0
18:00:27,235.0,257.0,229.0
18:00:27,235.0,257.0,229.0
18:00:27,175.0,258.0,228.0
18:00:27,175.0,258.0,228.0
18:00:27,175.0,258.0,228.0
18:00:27,175.0,258.0,228.0
18:00:27,220.0,258.0,228.0
18:00:27,220.0,258.0,228.0
18:00:27,220.0,258.0,228.0
18:00:27,220.0,258.0,228.0
18:00:27,237.0,257.0,228.0
18:00:27,237.0,257.0,228.0
18:00:27,237.0,257.0,228.0
18:00:27,237.0,257.0,228.0
18:00:27,287.0,258.0,228.0
18:00:27,287.0,258.0,228.0
18:00:27,287.0,258.0,228.0
18:00:27,287.0,258.0,228.0
18:00:27,347.0,257.0,228.0
18:00:27,347.0,257.0,228.0
18:00:27,347.0,257.0,228.0
18:00:27,347.0,257.0,228.0
18:00:27,238.0,257.0,228.0
18:00:27,238.0,257.0,228.0
18:00:27,238.0,257.0,228.0
18:00:27,238.0,257.0,228.0
18:00:27,212.0,258.0,227.0
18:00:27,212.0,258.0,227.0
18:00:27,212.0,258.0,227.0
18:00:27,212.0,258.0,227.0
18:00:27,229.0,257.0,227.0
18:00:27,229.0,257.0,227.0
18:00:27,229.0,257.0,227.0
18:00:27,229.0,257.0,227.0
18:00:27,284.0,257.0,228.0
18:00:27,284.0,257.0,228.0
18:00:27,284.0,257.0,228.0
18:00:27,284.0,257.0,228.0
18:00:27,232.0,257.0,228.0
18:00:27,232.0,257.0,228.0
18:00:27,232.0,257.0,228.0
18:00:27,232.0,257.0,228.0
18:00:27,1324.0,257.0,227.0
18:00:27,1324.0,257.0,227.0
18:00:27,1324.0,257.0,227.0
18:00:27,1324.0,257.0,227.0
18:00:27,796.0,257.0,228.0
18:00:27,796.0,257.0,228.0
18:00:27,796.0,257.0,228.0
18:00:27,796.0,257.0,228.0
18:00:27,75.0,258.0,228.0
18:00:27,75.0,258.0,228.0
18:00:27,75.0,258.0,228.0
18:00:27,75.0,258.0,228.0
18:00:28,131.0,258.0,228.0
18:00:28,131.0,258.0,228.0
18:00:28,131.0,258.0,228.0
18:00:28,131.0,258.0,228.0
18:00:28,126.0,257.0,229.0
18:00:28,126.0,257.0,229.0
18:00:28,126.0,257.0,229.0
18:00:28,126.0,257.0,229.0
18:00:28,204.0,258.0,227.0
18:00:28,204.0,258.0,227.0
18:00:28,204.0,258.0,227.0
18:00:28,204.0,258.0,227.0
18:00:28,212.0,257.0,227.0
18:00:28,212.0,257.0,227.0
18:00:28,212.0,257.0,227.0
18:00:28,212.0,257.0,227.0
18:00:28,265.0,258.0,228.0
18:00:28,265.0,258.0,228.0
18:00:28,265.0,258.0,228.0
18:00:28,265.0,258.0,228.0
18:00:28,341.0,256.0,228.0
18:00:28,341.0,256.0,228.0
18:00:28,341.0,256.0,228.0
18:00:28,341.0,256.0,228.0
18:00:28,439.0,257.0,230.0
18:00:28,439.0,257.0,230.0
18:00:28,439.0,257.0,230.0
18:00:28,439.0,257.0,230.0
18:00:28,579.0,257.0,230.0
18:00:28,579.0,257.0,230.0
18:00:28,579.0,257.0,230.0
18:00:28,579.0,257.0,230.0
18:00:28,628.0,256.0,231.0
18:00:28,628.0,256.0,231.0
18:00:28,628.0,256.0,231.0
18:00:28,628.0,256.0,231.0
18:00:28,493.0,258.0,228.0
18:00:28,493.0,258.0,228.0
18:00:28,493.0,258.0,228.0
18:00:28,493.0,258.0,228.0
18:00:28,310.0,257.0,228.0
18:00:28,310.0,257.0,228.0
18:00:28,310.0,257.0,228.0
18:00:28,310.0,257.0,228.0
18:00:28,192.0,257.0,230.0
18:00:28,192.0,257.0,230.0
18:00:28,192.0,257.0,230.0
18:00:28,192.0,257.0,230.0
18:00:28,183.0,257.0,228.0
18:00:28,183.0,257.0,228.0
18:00:28,183.0,257.0,228.0
18:00:28,183.0,257.0,228.0
18:00:28,184.0,257.0,227.0
18:00:28,184.0,257.0,227.0
18:00:28,184.0,257.0,227.0
18:00:28,184.0,257.0,227.0
18:00:28,182.0,257.0,227.0
18:00:28,182.0,257.0,227.0
18:00:28,182.0,257.0,227.0
18:00:28,182.0,257.0,227.0
18:00:28,173.0,257.0,228.0
18:00:28,173.0,257.0,228.0
18:00:28,173.0,257.0,228.0
18:00:28,173.0,257.0,228.0
18:00:28,228.0,259.0,227.0
18:00:28,228.0,259.0,227.0
18:00:28,228.0,259.0,227.0
18:00:28,228.0,259.0,227.0
18:00:28,225.0,259.0,228.0
18:00:28,225.0,259.0,228.0
18:00:28,225.0,259.0,228.0
18:00:28,225.0,259.0,228.0
18:00:28,253.0,259.0,226.0
18:00:28,253.0,259.0,226.0
18:00:28,253.0,259.0,226.0
18:00:28,253.0,259.0,226.0
18:00:28,253.0,259.0,227.0
18:00:28,253.0,259.0,227.0
18:00:28,253.0,259.0,227.0
18:00:28,253.0,259.0,227.0
18:00:28,319.0,259.0,227.0
18:00:28,319.0,259.0,227.0
18:00:28,319.0,259.0,227.0
18:00:28,319.0,259.0,227.0
18:00:28,309.0,258.0,228.0
18:00:28,309.0,258.0,228.0
18:00:28,309.0,258.0,228.0
18:00:28,309.0,258.0,228.0
18:00:28,282.0,258.0,227.0
18:00:28,282.0,258.0,227.0
18:00:28,282.0,258.0,227.0
18:00:28,282.0,258.0,227.0
18:00:28,194.0,256.0,228.0
18:00:28,194.0,256.0,228.0
18:00:28,194.0,256.0,228.0
18:00:28,194.0,256.0,228.0
18:00:28,286.0,257.0,227.0
18:00:28,286.0,257.0,227.0
18:00:28,286.0,257.0,227.0
18:00:28,286.0,257.0,227.0
18:00:28,305.0,257.0,227.0
18:00:28,305.0,257.0,227.0
18:00:28,305.0,257.0,227.0
18:00:28,305.0,257.0,227.0
18:00:28,1405.0,257.0,228.0
18:00:28,1405.0,257.0,228.0
18:00:28,1405.0,257.0,228.0
18:00:28,1405.0,257.0,228.0
18:00:28,702.0,256.0,228.0
18:00:28,702.0,256.0,228.0
18:00:28,702.0,256.0,228.0
18:00:28,702.0,256.0,228.0
18:00:28,175.0,258.0,227.0
18:00:28,175.0,258.0,227.0
18:00:28,175.0,258.0,227.0
18:00:28,175.0,258.0,227.0
18:00:28,86.0,256.0,227.0
18:00:28,86.0,256.0,227.0
18:00:28,86.0,256.0,227.0
18:00:28,86.0,256.0,227.0
18:00:28,168.0,256.0,228.0
18:00:28,168.0,256.0,228.0
18:00:28,168.0,256.0,228.0
18:00:28,168.0,256.0,228.0
18:00:28,184.0,257.0,226.0
18:00:28,184.0,257.0,226.0
18:00:28,184.0,257.0,226.0
18:00:28,184.0,257.0,226.0
18:00:28,195.0,257.0,227.0
18:00:28,195.0,257.0,227.0
18:00:28,195.0,257.0,227.0
18:00:28,195.0,257.0,227.0
18:00:28,256.0,256.0,227.0
18:00:28,256.0,256.0,227.0
18:00:28,256.0,256.0,227.0
18:00:28,256.0,256.0,227.0
18:00:28,355.0,256.0,227.0
18:00:28,355.0,256.0,227.0
18:00:28,355.0,256.0,227.0
18:00:28,355.0,256.0,227.0
18:00:28,437.0,256.0,227.0
18:00:28,437.0,256.0,227.0
18:00:28,437.0,256.0,227.0
18:00:28,437.0,256.0,227.0
18:00:28,617.0,256.0,227.0
18:00:28,617.0,256.0,227.0
18:00:28,617.0,256.0,227.0
18:00:28,617.0,256.0,227.0
18:00:28,597.0,256.0,227.0
18:00:28,597.0,256.0,227.0
18:00:28,597.0,256.0,227.0
18:00:28,597.0,256.0,227.0
18:00:28,490.0,256.0,228.0
18:00:28,490.0,256.0,228.0
18:00:28,490.0,256.0,228.0
18:00:28,490.0,256.0,228.0
18:00:28,253.0,256.0,226.0
18:00:28,253.0,256.0,226.0
18:00:28,253.0,256.0,226.0
18:00:28,253.0,256.0,226.0
18:00:28,147.0,257.0,228.0
18:00:28,147.0,257.0,228.0
18:00:28,147.0,257.0,228.0
18:00:28,147.0,257.0,228.0
18:00:28,105.0,258.0,227.0
18:00:28,105.0,258.0,227.0
18:00:28,105.0,258.0,227.0
18:00:28,105.0,258.0,227.0
18:00:28,151.0,256.0,226.0
18:00:28,151.0,256.0,226.0
18:00:28,151.0,256.0,226.0
18:00:28,151.0,256.0,226.0
18:00:28,171.0,256.0,228.0
18:00:28,171.0,256.0,228.0
18:00:28,171.0,256.0,228.0
18:00:28,171.0,256.0,228.0
18:00:28,130.0,257.0,226.0
18:00:28,130.0,257.0,226.0
18:00:28,130.0,257.0,226.0
18:00:28,130.0,257.0,226.0
18:00:28,136.0,256.0,228.0
18:00:28,136.0,256.0,228.0
18:00:28,136.0,256.0,228.0
18:00:28,136.0,256.0,228.0
18:00:28,152.0,256.0,227.0
18:00:28,152.0,256.0,227.0
18:00:28,152.0,256.0,227.0
18:00:28,152.0,256.0,227.0
18:00:28,194.0,256.0,227.0
18:00:28,194.0,256.0,227.0
18:00:28,194.0,256.0,227.0
18:00:28,194.0,256.0,227.0
18:00:28,284.0,257.0,227.0
18:00:28,284.0,257.0,227.0
18:00:28,284.0,257.0,227.0
18:00:28,284.0,257.0,227.0
18:00:28,272.0,256.0,228.0
18:00:28,272.0,256.0,228.0
18:00:28,272.0,256.0,228.0
18:00:28,272.0,256.0,228.0
18:00:28,329.0,256.0,227.0
18:00:29,329.0,256.0,227.0
18:00:29,329.0,256.0,227.0
18:00:29,329.0,256.0,227.0
18:00:29,272.0,256.0,227.0
18:00:29,272.0,256.0,227.0
18:00:29,272.0,256.0,227.0
18:00:29,272.0,256.0,227.0
18:00:29,231.0,255.0,228.0
18:00:29,231.0,255.0,228.0
18:00:29,231.0,255.0,228.0
18:00:29,231.0,255.0,228.0
18:00:29,210.0,257.0,227.0
18:00:29,210.0,257.0,227.0
18:00:29,210.0,257.0,227.0
18:00:29,210.0,257.0,227.0
18:00:29,240.0,256.0,227.0
18:00:29,240.0,256.0,227.0
18:00:29,240.0,256.0,227.0
18:00:29,240.0,256.0,227.0
18:00:29,533.0,256.0,227.0
18:00:29,533.0,256.0,227.0
18:00:29,533.0,256.0,227.0
18:00:29,533.0,256.0,227.0
18:00:29,2312.0,256.0,226.0
18:00:29,2312.0,256.0,226.0
18:00:29,2312.0,256.0,226.0
18:00:29,2312.0,256.0,226.0
18:00:29,98.0,257.0,228.0
18:00:29,98.0,257.0,228.0
18:00:29,98.0,257.0,228.0
18:00:29,98.0,257.0,228.0
18:00:29,118.0,256.0,228.0
18:00:29,118.0,256.0,228.0
18:00:29,118.0,256.0,228.0
18:00:29,118.0,256.0,228.0
18:00:29,121.0,256.0,227.0
18:00:29,121.0,256.0,227.0
18:00:29,121.0,256.0,227.0
18:00:29,121.0,256.0,227.0
18:00:29,133.0,257.0,227.0
18:00:29,133.0,257.0,227.0
18:00:29,133.0,257.0,227.0
18:00:29,133.0,257.0,227.0
18:00:29,209.0,258.0,228.0
18:00:29,209.0,258.0,228.0
18:00:29,209.0,258.0,228.0
18:00:29,209.0,258.0,228.0
18:00:29,175.0,256.0,227.0
18:00:29,175.0,256.0,227.0
18:00:29,175.0,256.0,227.0
18:00:29,175.0,256.0,227.0
18:00:29,288.0,257.0,228.0
18:00:29,288.0,257.0,228.0
18:00:29,288.0,257.0,228.0
18:00:29,288.0,257.0,228.0
18:00:29,374.0,257.0,227.0
18:00:29,374.0,257.0,227.0
18:00:29,374.0,257.0,227.0
18:00:29,374.0,257.0,227.0
18:00:29,478.0,257.0,226.0
18:00:29,478.0,257.0,226.0
18:00:29,478.0,257.0,226.0
18:00:29,478.0,257.0,226.0
18:00:29,601.0,258.0,227.0
18:00:29,601.0,258.0,227.0
18:00:29,601.0,258.0,227.0
18:00:29,601.0,258.0,227.0
18:00:29,568.0,257.0,227.0
18:00:29,568.0,257.0,227.0
18:00:29,568.0,257.0,227.0
18:00:29,568.0,257.0,227.0
18:00:29,428.0,257.0,226.0
18:00:29,428.0,257.0,226.0
18:00:29,428.0,257.0,226.0
18:00:29,428.0,257.0,226.0
18:00:29,232.0,258.0,228.0
18:00:29,232.0,258.0,228.0
18:00:29,232.0,258.0,228.0
18:00:29,232.0,258.0,228.0
18:00:29,174.0,256.0,228.0
18:00:29,174.0,256.0,228.0
18:00:29,174.0,256.0,228.0
18:00:29,174.0,256.0,228.0
18:00:29,93.0,256.0,226.0
18:00:29,93.0,256.0,226.0
18:00:29,93.0,256.0,226.0
18:00:29,93.0,256.0,226.0
18:00:29,118.0,256.0,228.0
18:00:29,118.0,256.0,228.0
18:00:29,118.0,256.0,228.0
18:00:29,118.0,256.0,228.0
18:00:29,145.0,257.0,228.0
18:00:29,145.0,257.0,228.0
18:00:29,145.0,257.0,228.0
18:00:29,145.0,257.0,228.0
18:00:29,187.0,257.0,227.0
18:00:29,187.0,257.0,227.0
18:00:29,187.0,257.0,227.0
18:00:29,187.0,257.0,227.0
18:00:29,223.0,256.0,227.0
18:00:29,223.0,256.0,227.0
18:00:29,223.0,256.0,227.0
18:00:29,223.0,256.0,227.0
18:00:29,118.0,257.0,229.0
18:00:29,118.0,257.0,229.0
18:00:29,118.0,257.0,229.0
18:00:29,118.0,257.0,229.0
18:00:29,138.0,257.0,226.0
18:00:29,138.0,257.0,226.0
18:00:29,138.0,257.0,226.0
18:00:29,138.0,257.0,226.0
18:00:29,260.0,256.0,227.0
18:00:29,260.0,256.0,227.0
18:00:29,260.0,256.0,227.0
18:00:29,260.0,256.0,227.0
18:00:29,271.0,257.0,227.0
18:00:29,271.0,257.0,227.0
18:00:29,271.0,257.0,227.0
18:00:29,271.0,257.0,227.0
18:00:29,336.0,256.0,225.0
18:00:29,336.0,256.0,225.0
18:00:29,336.0,256.0,225.0
18:00:29,336.0,256.0,225.0
18:00:29,227.0,257.0,226.0
18:00:29,227.0,257.0,226.0
18:00:29,227.0,257.0,226.0
18:00:29,227.0,257.0,226.0
18:00:29,193.0,256.0,225.0
18:00:29,193.0,256.0,225.0
18:00:29,193.0,256.0,225.0
18:00:29,193.0,256.0,225.0
18:00:29,212.0,256.0,225.0
18:00:29,212.0,256.0,225.0
18:00:29,212.0,256.0,225.0
18:00:29,212.0,256.0,225.0
18:00:29,245.0,257.0,223.0
18:00:29,245.0,257.0,223.0
18:00:29,245.0,257.0,223.0
18:00:29,245.0,257.0,223.0
18:00:29,336.0,256.0,225.0
18:00:29,336.0,256.0,225.0
18:00:29,336.0,256.0,225.0
18:00:29,336.0,256.0,225.0
18:00:29,2060.0,256.0,227.0
18:00:29,2060.0,256.0,227.0
18:00:29,2060.0,256.0,227.0
18:00:29,2060.0,256.0,227.0
18:00:29,167.0,257.0,226.0
18:00:29,167.0,257.0,226.0
18:00:29,167.0,257.0,226.0
18:00:29,167.0,257.0,226.0
18:00:29,161.0,257.0,227.0
18:00:29,161.0,257.0,227.0
18:00:29,161.0,257.0,227.0
18:00:29,161.0,257.0,227.0
18:00:29,122.0,257.0,226.0
18:00:29,122.0,257.0,226.0
18:00:29,122.0,257.0,226.0
18:00:29,122.0,257.0,226.0
18:00:29,141.0,255.0,228.0
18:00:29,141.0,255.0,228.0
18:00:29,141.0,255.0,228.0
18:00:29,141.0,255.0,228.0
18:00:29,175.0,256.0,227.0
18:00:29,175.0,256.0,227.0
18:00:29,175.0,256.0,227.0
18:00:29,175.0,256.0,227.0
18:00:29,209.0,253.0,227.0
18:00:29,209.0,253.0,227.0
18:00:29,209.0,253.0,227.0
18:00:29,209.0,253.0,227.0
18:00:29,283.0,254.0,227.0
18:00:29,283.0,254.0,227.0
18:00:29,283.0,254.0,227.0
18:00:29,283.0,254.0,227.0
18:00:29,367.0,255.0,227.0
18:00:29,367.0,255.0,227.0
18:00:29,367.0,255.0,227.0
18:00:29,367.0,255.0,227.0
18:00:29,468.0,254.0,227.0
18:00:29,468.0,254.0,227.0
18:00:29,468.0,254.0,227.0
18:00:29,468.0,254.0,227.0
18:00:29,632.0,255.0,228.0
18:00:29,632.0,255.0,228.0
18:00:29,632.0,255.0,228.0
18:00:29,632.0,255.0,228.0
18:00:29,607.0,255.0,226.0
18:00:29,607.0,255.0,226.0
18:00:29,607.0,255.0,226.0
18:00:29,607.0,255.0,226.0
18:00:29,426.0,257.0,227.0
18:00:29,426.0,257.0,227.0
18:00:29,426.0,257.0,227.0
18:00:29,426.0,257.0,227.0
18:00:29,223.0,256.0,226.0
18:00:29,223.0,256.0,226.0
18:00:29,223.0,256.0,226.0
18:00:29,223.0,256.0,226.0
18:00:29,122.0,256.0,228.0
18:00:30,122.0,256.0,228.0
18:00:30,122.0,256.0,228.0
18:00:30,122.0,256.0,228.0
18:00:30,153.0,258.0,228.0
18:00:30,153.0,258.0,228.0
18:00:30,153.0,258.0,228.0
18:00:30,153.0,258.0,228.0
18:00:30,176.0,256.0,229.0
18:00:30,176.0,256.0,229.0
18:00:30,176.0,256.0,229.0
18:00:30,176.0,256.0,229.0
18:00:30,162.0,256.0,227.0
18:00:30,162.0,256.0,227.0
18:00:30,162.0,256.0,227.0
18:00:30,162.0,256.0,227.0
18:00:30,176.0,256.0,226.0
18:00:30,176.0,256.0,226.0
18:00:30,176.0,256.0,226.0
18:00:30,176.0,256.0,226.0
18:00:30,134.0,256.0,228.0
18:00:30,134.0,256.0,228.0
18:00:30,134.0,256.0,228.0
18:00:30,134.0,256.0,228.0
18:00:30,218.0,257.0,228.0
18:00:30,218.0,257.0,228.0
18:00:30,218.0,257.0,228.0
18:00:30,218.0,257.0,228.0
18:00:30,175.0,257.0,226.0
18:00:30,175.0,257.0,226.0
18:00:30,175.0,257.0,226.0
18:00:30,175.0,257.0,226.0
18:00:30,297.0,256.0,227.0
18:00:30,297.0,256.0,227.0
18:00:30,297.0,256.0,227.0
18:00:30,297.0,256.0,227.0
18:00:30,258.0,257.0,229.0
18:00:30,258.0,257.0,229.0
18:00:30,258.0,257.0,229.0
18:00:30,258.0,257.0,229.0
18:00:30,309.0,256.0,227.0
18:00:30,309.0,256.0,227.0
18:00:30,309.0,256.0,227.0
18:00:30,309.0,256.0,227.0
18:00:30,220.0,257.0,227.0
18:00:30,220.0,257.0,227.0
18:00:30,220.0,257.0,227.0
18:00:30,220.0,257.0,227.0
18:00:30,223.0,257.0,228.0
18:00:30,223.0,257.0,228.0
18:00:30,223.0,257.0,228.0
18:00:30,223.0,257.0,228.0
18:00:30,256.0,257.0,226.0
18:00:30,256.0,257.0,226.0
18:00:30,256.0,257.0,226.0
18:00:30,256.0,257.0,226.0
18:00:30,248.0,257.0,227.0
18:00:30,248.0,257.0,227.0
18:00:30,248.0,257.0,227.0
18:00:30,248.0,257.0,227.0
18:00:30,559.0,256.0,228.0
18:00:30,559.0,256.0,228.0
18:00:30,559.0,256.0,228.0
18:00:30,559.0,256.0,228.0
18:00:30,2093.0,257.0,228.0
18:00:30,2093.0,257.0,228.0
18:00:30,2093.0,257.0,228.0
18:00:30,2093.0,257.0,228.0
18:00:30,113.0,257.0,226.0
18:00:30,113.0,257.0,226.0
18:00:30,113.0,257.0,226.0
18:00:30,113.0,257.0,226.0
18:00:30,141.0,256.0,228.0
18:00:30,141.0,256.0,228.0
18:00:30,141.0,256.0,228.0
18:00:30,141.0,256.0,228.0
18:00:30,166.0,256.0,227.0
18:00:30,166.0,256.0,227.0
18:00:30,166.0,256.0,227.0
18:00:30,166.0,256.0,227.0
18:00:30,208.0,257.0,225.0
18:00:30,208.0,257.0,225.0
18:00:30,208.0,257.0,225.0
18:00:30,208.0,257.0,225.0
18:00:30,188.0,257.0,224.0
18:00:30,188.0,257.0,224.0
18:00:30,188.0,257.0,224.0
18:00:30,188.0,257.0,224.0
18:00:30,268.0,256.0,224.0
18:00:30,268.0,256.0,224.0
18:00:30,268.0,256.0,224.0
18:00:30,268.0,256.0,224.0
18:00:30,279.0,257.0,223.0
18:00:30,279.0,257.0,223.0
18:00:30,279.0,257.0,223.0
18:00:30,279.0,257.0,223.0
18:00:30,386.0,256.0,225.0
18:00:30,386.0,256.0,225.0
18:00:30,386.0,256.0,225.0
18:00:30,386.0,256.0,225.0
18:00:30,550.0,257.0,226.0
18:00:30,550.0,257.0,226.0
18:00:30,550.0,257.0,226.0
18:00:30,550.0,257.0,226.0
18:00:30,591.0,257.0,225.0
18:00:30,591.0,257.0,225.0
18:00:30,591.0,257.0,225.0
18:00:30,591.0,257.0,225.0
18:00:30,564.0,256.0,227.0
18:00:30,564.0,256.0,227.0
18:00:30,564.0,256.0,227.0
18:00:30,564.0,256.0,227.0
18:00:30,380.0,256.0,228.0
18:00:30,380.0,256.0,228.0
18:00:30,380.0,256.0,228.0
18:00:30,380.0,256.0,228.0
18:00:30,175.0,256.0,227.0
18:00:30,175.0,256.0,227.0
18:00:30,175.0,256.0,227.0
18:00:30,175.0,256.0,227.0
18:00:30,167.0,257.0,228.0
18:00:30,167.0,257.0,228.0
18:00:30,167.0,257.0,228.0
18:00:30,167.0,257.0,228.0
18:00:30,139.0,255.0,227.0
18:00:30,139.0,255.0,227.0
18:00:30,139.0,255.0,227.0
18:00:30,139.0,255.0,227.0
18:00:30,166.0,253.0,227.0
18:00:30,166.0,253.0,227.0
18:00:30,166.0,253.0,227.0
18:00:30,166.0,253.0,227.0
18:00:30,151.0,254.0,228.0
18:00:30,151.0,254.0,228.0
18:00:30,151.0,254.0,228.0
18:00:30,151.0,254.0,228.0
18:00:30,149.0,252.0,228.0
18:00:30,149.0,252.0,228.0
18:00:30,149.0,252.0,228.0
18:00:30,149.0,252.0,228.0
18:00:30,191.0,253.0,228.0
18:00:30,191.0,253.0,228.0
18:00:30,191.0,253.0,228.0
18:00:30,191.0,253.0,228.0
18:00:30,176.0,255.0,228.0
18:00:30,176.0,255.0,228.0
18:00:30,176.0,255.0,228.0
18:00:30,176.0,255.0,228.0
18:00:30,274.0,254.0,227.0
18:00:30,274.0,254.0,227.0
18:00:30,274.0,254.0,227.0
18:00:30,274.0,254.0,227.0
18:00:30,274.0,256.0,228.0
18:00:30,274.0,256.0,228.0
18:00:30,274.0,256.0,228.0
18:00:30,274.0,256.0,228.0
18:00:30,328.0,256.0,226.0
18:00:30,328.0,256.0,226.0
18:00:30,328.0,256.0,226.0
18:00:30,328.0,256.0,226.0
18:00:30,226.0,256.0,226.0
18:00:30,226.0,256.0,226.0
18:00:30,226.0,256.0,226.0
18:00:30,226.0,256.0,226.0
18:00:30,193.0,257.0,225.0
18:00:30,193.0,257.0,225.0
18:00:30,193.0,257.0,225.0
18:00:30,193.0,257.0,225.0
18:00:30,215.0,256.0,223.0
18:00:30,215.0,256.0,223.0
18:00:30,215.0,256.0,223.0
18:00:30,215.0,256.0,223.0
18:00:30,227.0,257.0,224.0
18:00:30,227.0,257.0,224.0
18:00:30,227.0,257.0,224.0
18:00:30,227.0,257.0,224.0
18:00:30,422.0,257.0,224.0
18:00:30,422.0,257.0,224.0
18:00:30,422.0,257.0,224.0
18:00:30,422.0,257.0,224.0
18:00:30,2189.0,256.0,225.0
18:00:30,2189.0,256.0,225.0
18:00:30,2189.0,256.0,225.0
18:00:30,2189.0,256.0,225.0
18:00:30,148.0,257.0,227.0
18:00:30,148.0,257.0,227.0
18:00:30,148.0,257.0,227.0
18:00:30,148.0,257.0,227.0
18:00:30,155.0,257.0,227.0
18:00:30,155.0,257.0,227.0
18:00:30,155.0,257.0,227.0
18:00:30,155.0,257.0,227.0
18:00:30,175.0,256.0,229.0
18:00:30,175.0,256.0,229.0
18:00:30,175.0,256.0,229.0
18:00:30,175.0,256.0,229.0
18:00:30,140.0,256.0,229.0
18:00:30,140.0,256.0,229.0
18:00:30,140.0,256.0,229.0
18:00:30,140.0,256.0,229.0
18:00:30,204.0,257.0,229.0
18:00:30,204.0,257.0,229.0
18:00:31,204.0,257.0,229.0
18:00:31,204.0,257.0,229.0
18:00:31,277.0,256.0,229.0
18:00:31,277.0,256.0,229.0
18:00:31,277.0,256.0,229.0
18:00:31,277.0,256.0,229.0
18:00:31,285.0,256.0,229.0
18:00:31,285.0,256.0,229.0
18:00:31,285.0,256.0,229.0
18:00:31,285.0,256.0,229.0
18:00:31,405.0,255.0,229.0
18:00:31,405.0,255.0,229.0
18:00:31,405.0,255.0,229.0
18:00:31,405.0,255.0,229.0
18:00:31,540.0,253.0,229.0
18:00:31,540.0,253.0,229.0
18:00:31,540.0,253.0,229.0
18:00:31,540.0,253.0,229.0
18:00:31,627.0,254.0,228.0
18:00:31,627.0,254.0,228.0
18:00:31,627.0,254.0,228.0
18:00:31,627.0,254.0,228.0
18:00:31,598.0,254.0,229.0
18:00:31,598.0,254.0,229.0
18:00:31,598.0,254.0,229.0
18:00:31,598.0,254.0,229.0
18:00:31,416.0,254.0,229.0
18:00:31,416.0,254.0,229.0
18:00:31,416.0,254.0,229.0
18:00:31,416.0,254.0,229.0
18:00:31,241.0,256.0,228.0
18:00:31,241.0,256.0,228.0
18:00:31,241.0,256.0,228.0
18:00:31,241.0,256.0,228.0
18:00:31,180.0,256.0,229.0
18:00:31,180.0,256.0,229.0
18:00:31,180.0,256.0,229.0
18:00:31,180.0,256.0,229.0
18:00:31,132.0,258.0,228.0
18:00:31,132.0,258.0,228.0
18:00:31,132.0,258.0,228.0
18:00:31,132.0,258.0,228.0
18:00:31,134.0,257.0,228.0
18:00:31,134.0,257.0,228.0
18:00:31,134.0,257.0,228.0
18:00:31,134.0,257.0,228.0
18:00:31,213.0,257.0,228.0
18:00:31,213.0,257.0,228.0
18:00:31,213.0,257.0,228.0
18:00:31,213.0,257.0,228.0
18:00:31,231.0,257.0,230.0
18:00:31,231.0,257.0,230.0
18:00:31,231.0,257.0,230.0
18:00:31,231.0,257.0,230.0
18:00:31,160.0,258.0,228.0
18:00:31,160.0,258.0,228.0
18:00:31,160.0,258.0,228.0
18:00:31,160.0,258.0,228.0
18:00:31,232.0,258.0,229.0
18:00:31,232.0,258.0,229.0
18:00:31,232.0,258.0,229.0
18:00:31,232.0,258.0,229.0
18:00:31,265.0,258.0,228.0
18:00:31,265.0,258.0,228.0
18:00:31,265.0,258.0,228.0
18:00:31,265.0,258.0,228.0
18:00:31,301.0,257.0,228.0
18:00:31,301.0,257.0,228.0
18:00:31,301.0,257.0,228.0
18:00:31,301.0,257.0,228.0
18:00:31,336.0,258.0,228.0
18:00:31,336.0,258.0,228.0
18:00:31,336.0,258.0,228.0
18:00:31,336.0,258.0,228.0
18:00:31,208.0,257.0,229.0
18:00:31,208.0,257.0,229.0
18:00:31,208.0,257.0,229.0
18:00:31,208.0,257.0,229.0
18:00:31,182.0,257.0,228.0
18:00:31,182.0,257.0,228.0
18:00:31,182.0,257.0,228.0
18:00:31,182.0,257.0,228.0
18:00:31,216.0,258.0,228.0
18:00:31,216.0,258.0,228.0
18:00:31,216.0,258.0,228.0
18:00:31,216.0,258.0,228.0
18:00:31,202.0,257.0,228.0
18:00:31,202.0,257.0,228.0
18:00:31,202.0,257.0,228.0
18:00:31,202.0,257.0,228.0
18:00:31,422.0,257.0,228.0
18:00:31,422.0,257.0,228.0
18:00:31,422.0,257.0,228.0
18:00:31,422.0,257.0,228.0
18:00:31,2226.0,258.0,229.0
18:00:31,2226.0,258.0,229.0
18:00:31,2226.0,258.0,229.0
18:00:31,2226.0,258.0,229.0
18:00:31,151.0,258.0,229.0
18:00:31,151.0,258.0,229.0
18:00:31,151.0,258.0,229.0
18:00:31,151.0,258.0,229.0
18:00:31,89.0,257.0,228.0
18:00:31,89.0,257.0,228.0
18:00:31,89.0,257.0,228.0
18:00:31,89.0,257.0,228.0
18:00:31,152.0,258.0,229.0
18:00:31,152.0,258.0,229.0
18:00:31,152.0,258.0,229.0
18:00:31,152.0,258.0,229.0
18:00:31,154.0,257.0,229.0
18:00:31,154.0,257.0,229.0
18:00:31,154.0,257.0,229.0
18:00:31,154.0,257.0,229.0
18:00:31,215.0,258.0,228.0
18:00:31,215.0,258.0,228.0
18:00:31,215.0,258.0,228.0
18:00:31,215.0,258.0,228.0
18:00:31,243.0,258.0,229.0
18:00:31,243.0,258.0,229.0
18:00:31,243.0,258.0,229.0
18:00:31,243.0,258.0,229.0
18:00:31,284.0,258.0,228.0
18:00:31,284.0,258.0,228.0
18:00:31,284.0,258.0,228.0
18:00:31,284.0,258.0,228.0
18:00:31,339.0,258.0,228.0
18:00:31,339.0,258.0,228.0
18:00:31,339.0,258.0,228.0
18:00:31,339.0,258.0,228.0
18:00:31,488.0,258.0,229.0
18:00:31,488.0,258.0,229.0
18:00:31,488.0,258.0,229.0
18:00:31,488.0,258.0,229.0
18:00:31,656.0,258.0,228.0
18:00:31,656.0,258.0,228.0
18:00:31,656.0,258.0,228.0
18:00:31,656.0,258.0,228.0
18:00:31,593.0,257.0,229.0
18:00:31,593.0,257.0,229.0
18:00:31,593.0,257.0,229.0
18:00:31,593.0,257.0,229.0
18:00:31,428.0,258.0,229.0
18:00:31,428.0,258.0,229.0
18:00:31,428.0,258.0,229.0
18:00:31,428.0,258.0,229.0
18:00:31,205.0,258.0,228.0
18:00:31,205.0,258.0,228.0
18:00:31,205.0,258.0,228.0
18:00:31,205.0,258.0,228.0
18:00:31,210.0,257.0,229.0
18:00:31,210.0,257.0,229.0
18:00:31,210.0,257.0,229.0
18:00:31,210.0,257.0,229.0
18:00:31,199.0,257.0,228.0
18:00:31,199.0,257.0,228.0
18:00:31,199.0,257.0,228.0
18:00:31,199.0,257.0,228.0
18:00:31,184.0,258.0,228.0
18:00:31,184.0,258.0,228.0
18:00:31,184.0,258.0,228.0
18:00:31,184.0,258.0,228.0
18:00:31,167.0,257.0,229.0
18:00:31,167.0,257.0,229.0
18:00:31,167.0,257.0,229.0
18:00:31,167.0,257.0,229.0
18:00:31,126.0,258.0,229.0
18:00:31,126.0,258.0,229.0
18:00:31,126.0,258.0,229.0
18:00:31,126.0,258.0,229.0
18:00:31,216.0,258.0,228.0
18:00:31,216.0,258.0,228.0
18:00:31,216.0,258.0,228.0
18:00:31,216.0,258.0,228.0
18:00:31,177.0,257.0,229.0
18:00:31,177.0,257.0,229.0
18:00:31,177.0,257.0,229.0
18:00:31,177.0,257.0,229.0
18:00:31,183.0,257.0,230.0
18:00:31,183.0,257.0,230.0
18:00:31,183.0,257.0,230.0
18:00:31,183.0,257.0,230.0
18:00:31,262.0,258.0,229.0
18:00:31,262.0,258.0,229.0
18:00:31,262.0,258.0,229.0
18:00:31,262.0,258.0,229.0
18:00:31,337.0,256.0,228.0
18:00:31,337.0,256.0,228.0
18:00:31,337.0,256.0,228.0
18:00:31,337.0,256.0,228.0
18:00:31,253.0,259.0,228.0
18:00:31,253.0,259.0,228.0
18:00:31,253.0,259.0,228.0
18:00:31,253.0,259.0,228.0
18:00:31,232.0,258.0,229.0
18:00:31,232.0,258.0,229.0
18:00:31,232.0,258.0,229.0
18:00:31,232.0,258.0,229.0
18:00:31,232.0,257.0,228.0
18:00:31,232.0,257.0,228.0
18:00:31,232.0,257.0,228.0
18:00:32,232.0,257.0,228.0
18:00:32,235.0,258.0,228.0
18:00:32,235.0,258.0,228.0
18:00:32,235.0,258.0,228.0
18:00:32,235.0,258.0,228.0
18:00:32,257.0,257.0,229.0
18:00:32,257.0,257.0,229.0
18:00:32,257.0,257.0,229.0
18:00:32,257.0,257.0,229.0
18:00:32,1682.0,257.0,229.0
18:00:32,1682.0,257.0,229.0
18:00:32,1682.0,257.0,229.0
18:00:32,1682.0,257.0,229.0
18:00:32,424.0,258.0,228.0
18:00:32,424.0,258.0,228.0
18:00:32,424.0,258.0,228.0
18:00:32,424.0,258.0,228.0
18:00:32,91.0,257.0,230.0
18:00:32,91.0,257.0,230.0
18:00:32,91.0,257.0,230.0
18:00:32,91.0,257.0,230.0
18:00:32,103.0,258.0,230.0
18:00:32,103.0,258.0,230.0
18:00:32,103.0,258.0,230.0
18:00:32,103.0,258.0,230.0
18:00:32,141.0,258.0,231.0
18:00:32,141.0,258.0,231.0
18:00:32,141.0,258.0,231.0
18:00:32,141.0,258.0,231.0
18:00:32,184.0,257.0,229.0
18:00:32,184.0,257.0,229.0
18:00:32,184.0,257.0,229.0
18:00:32,184.0,257.0,229.0
18:00:32,203.0,257.0,229.0
18:00:32,203.0,257.0,229.0
18:00:32,203.0,257.0,229.0
18:00:32,203.0,257.0,229.0
18:00:32,255.0,260.0,230.0
18:00:32,255.0,260.0,230.0
18:00:32,255.0,260.0,230.0
18:00:32,255.0,260.0,230.0
18:00:32,344.0,257.0,228.0
18:00:32,344.0,257.0,228.0
18:00:32,344.0,257.0,228.0
18:00:32,344.0,257.0,228.0
18:00:32,443.0,257.0,229.0
18:00:32,443.0,257.0,229.0
18:00:32,443.0,257.0,229.0
18:00:32,443.0,257.0,229.0
18:00:32,626.0,259.0,228.0
18:00:32,626.0,259.0,228.0
18:00:32,626.0,259.0,228.0
18:00:32,626.0,259.0,228.0
18:00:32,646.0,257.0,228.0
18:00:32,646.0,257.0,228.0
18:00:32,646.0,257.0,228.0
18:00:32,646.0,257.0,228.0
18:00:32,509.0,257.0,230.0
18:00:32,509.0,257.0,230.0
18:00:32,509.0,257.0,230.0
18:00:32,509.0,257.0,230.0
18:00:32,259.0,258.0,228.0
18:00:32,259.0,258.0,228.0
18:00:32,259.0,258.0,228.0
18:00:32,259.0,258.0,228.0
18:00:32,149.0,259.0,229.0
18:00:32,149.0,259.0,229.0
18:00:32,149.0,259.0,229.0
18:00:32,149.0,259.0,229.0
18:00:32,188.0,258.0,229.0
18:00:32,188.0,258.0,229.0
18:00:32,188.0,258.0,229.0
18:00:32,188.0,258.0,229.0
18:00:32,187.0,258.0,228.0
18:00:32,187.0,258.0,228.0
18:00:32,187.0,258.0,228.0
18:00:32,187.0,258.0,228.0
18:00:32,148.0,258.0,229.0
18:00:32,148.0,258.0,229.0
18:00:32,148.0,258.0,229.0
18:00:32,148.0,258.0,229.0
18:00:32,183.0,257.0,229.0
18:00:32,183.0,257.0,229.0
18:00:32,183.0,257.0,229.0
18:00:32,183.0,257.0,229.0
18:00:32,175.0,258.0,228.0
18:00:32,175.0,258.0,228.0
18:00:32,175.0,258.0,228.0
18:00:32,175.0,258.0,228.0
18:00:32,186.0,259.0,229.0
18:00:32,186.0,259.0,229.0
18:00:32,186.0,259.0,229.0
18:00:32,186.0,259.0,229.0
18:00:32,183.0,258.0,229.0
18:00:32,183.0,258.0,229.0
18:00:32,183.0,258.0,229.0
18:00:32,183.0,258.0,229.0
18:00:32,301.0,258.0,228.0
18:00:32,301.0,258.0,228.0
18:00:32,301.0,258.0,228.0
18:00:32,301.0,258.0,228.0
18:00:32,289.0,259.0,229.0
18:00:32,289.0,259.0,229.0
18:00:32,289.0,259.0,229.0
18:00:32,289.0,259.0,229.0
18:00:32,297.0,259.0,229.0
18:00:32,297.0,259.0,229.0
18:00:32,297.0,259.0,229.0
18:00:32,297.0,259.0,229.0
18:00:32,203.0,256.0,229.0
18:00:32,203.0,256.0,229.0
18:00:32,203.0,256.0,229.0
18:00:32,203.0,256.0,229.0
18:00:32,232.0,258.0,229.0
18:00:32,232.0,258.0,229.0
18:00:32,232.0,258.0,229.0
18:00:32,232.0,258.0,229.0
18:00:32,208.0,258.0,228.0
18:00:32,208.0,258.0,228.0
18:00:32,208.0,258.0,228.0
18:00:32,208.0,258.0,228.0
18:00:32,259.0,258.0,229.0
18:00:32,259.0,258.0,229.0
18:00:32,259.0,258.0,229.0
18:00:32,259.0,258.0,229.0
18:00:32,435.0,259.0,229.0
18:00:32,435.0,259.0,229.0
18:00:32,435.0,259.0,229.0
18:00:32,435.0,259.0,229.0
18:00:32,2186.0,258.0,228.0
18:00:32,2186.0,258.0,228.0
18:00:32,2186.0,258.0,228.0
18:00:32,2186.0,258.0,228.0
18:00:32,129.0,257.0,229.0
18:00:32,129.0,257.0,229.0
18:00:32,129.0,257.0,229.0
18:00:32,129.0,257.0,229.0
18:00:32,150.0,259.0,228.0
18:00:32,150.0,259.0,228.0
18:00:32,150.0,259.0,228.0
18:00:32,150.0,259.0,228.0
18:00:32,168.0,257.0,229.0
18:00:32,168.0,257.0,229.0
18:00:32,168.0,257.0,229.0
18:00:32,168.0,257.0,229.0
18:00:32,168.0,258.0,229.0
18:00:32,168.0,258.0,229.0
18:00:32,168.0,258.0,229.0
18:00:32,168.0,258.0,229.0
18:00:32,202.0,258.0,228.0
18:00:32,202.0,258.0,228.0
18:00:32,202.0,258.0,228.0
18:00:32,202.0,258.0,228.0
18:00:32,243.0,259.0,229.0
18:00:32,243.0,259.0,229.0
18:00:32,243.0,259.0,229.0
18:00:32,243.0,259.0,229.0
18:00:32,311.0,257.0,229.0
18:00:32,311.0,257.0,229.0
18:00:32,311.0,257.0,229.0
18:00:32,311.0,257.0,229.0
18:00:32,349.0,258.0,228.0
18:00:32,349.0,258.0,228.0
18:00:32,349.0,258.0,228.0
18:00:32,349.0,258.0,228.0
18:00:32,516.0,259.0,229.0
18:00:32,516.0,259.0,229.0
18:00:32,516.0,259.0,229.0
18:00:32,516.0,259.0,229.0
18:00:32,613.0,258.0,229.0
18:00:32,613.0,258.0,229.0
18:00:32,613.0,258.0,229.0
18:00:32,613.0,258.0,229.0
18:00:32,549.0,258.0,228.0
