Time (s),ecg
0.0,1784.000000000002
0.004,1805.701465869919
0.008,1873.6237257576236
0.012,1819.558907291788
0.016,1849.2979334293186
0.02,1841.0
0.024,1891.224294171183
0.028,1935.9407032228937
0.032,1893.7791726805428
0.036,1924.4525310524605
0.04,1912.9999999999982
0.044,1859.4703271320632
0.048,1854.8068801259572
0.052,1854.9439933011931
0.056,1853.2453838642778
0.06,1854.9999999999995
0.064,1937.2370064764302
0.068,1983.9129562658736
0.072,1941.8988557513985
0.076,1972.4592693997179
0.08,1961.0
0.084,1926.6503989765667
0.088,1943.801511928154
0.092,1914.3411586871637
0.096,1945.057336354027
0.1,1931.0
0.104,1801.1485948372465
0.108,1772.5740148394257
0.112,1780.51213044694
0.116,1785.9914744636396
0.12,1780.9999999999986
0.124,1677.790416422229
0.128,1638.110085441152
0.132,1665.6789093076807
0.136,1650.307390461984
0.14,1655.0000000000005
0.144,1654.9291990073393
0.148,1645.8915161990305
0.152,1655.6650592171372
0.156,1647.9837386460517
0.16,1651.000000000001
0.164,1671.7578937747273
0.168,1677.076617586214
0.172,1673.4271510466542
0.176,1676.1716897103563
0.18,1675.000000000001
0.184,1663.6136804761104
0.188,1661.9317998442293
0.192,1660.466114795279
0.196,1664.4502994159689
0.2,1662.0000000000027
0.204,1610.6747172054615
0.208,1586.8993064742244
0.212,1606.9219212414582
0.216,1592.3964096071045
0.22,1598.0000000000007
0.224,1634.2884222489452
0.228,1640.5888791332932
0.232,1639.2037990185731
0.236,1638.2135683577603
0.24,1639.0000000000005
0.244,1648.5654459184034
0.248,1650.4772332618968
0.252,1650.1726660125923
0.256,1649.6195327175737
0.26,1649.999999999996
0.264,1654.3198573050731
0.268,1655.3893943417327
0.272,1654.6112657915528
0.276,1655.5823733467096
0.28,1654.999999999999
0.284,1635.082006645026
0.288,1622.3875233457009
0.292,1635.6616021962393
0.296,1623.7172161237454
0.3,1629.0000000000005
0.304,1685.2425453167475
0.308,1703.4450820298878
0.312,1691.1430465879337
0.316,1698.701672388041
0.32,1695.9999999999989
0.324,1670.86083960201
0.328,1659.121567976954
0.332,1671.0995301102648
0.336,1659.7816426078382
0.34,1665.0000000000002
0.344,1729.7556402131672
0.348,1752.5358895612633
0.352,1737.050752527021
0.356,1745.478399970841
0.36,1743.0000000000014
0.364,1752.5102548806387
0.368,1764.8128993099454
0.372,1751.0810484782312
0.376,1763.3035094390127
0.38,1757.9999999999995
0.384,1706.3246046587712
0.388,1691.114994526631
0.392,1700.1262980385272
0.396,1696.029501434575
0.4,1696.9999999999982
0.404,1686.7798672483198
0.408,1679.110496062183
0.412,1686.3029890775078
0.416,1681.0035360721793
0.42,1683.0000000000018
0.424,1690.173540841391
0.428,1688.788517131266
0.432,1691.253449700675
0.436,1689.5840519063818
0.44,1690.000000000001
0.444,1668.8349747611676
0.448,1652.1626758619282
0.452,1669.1144185484902
0.456,1656.2032896390997
0.46,1661.000000000001
0.464,1636.9580737900321
0.468,1591.0716039746949
0.472,1654.2453403151933
0.476,1586.10522616682
0.48,1619.000000000001
0.484,2048.3534001407597
0.488,2196.821540567307
0.492,2103.08778934062
0.496,2142.319722123786
0.5,2135.999999999999
0.504,2474.4939036772093
0.508,2718.2924601786067
0.512,2460.803836471022
0.516,2692.8457432001114
0.52,2589.9999999999995
0.524,1440.3125201103817
0.528,1040.0593393635795
0.532,1328.8700044604561
0.536,1142.1949825883275
0.54,1210.0000000000005
0.544,1641.7552376919207
0.548,1738.3923591492835
0.552,1688.5578760113312
0.556,1712.0325172594162
0.56,1705.0000000000005
0.564,1656.2310422727633
0.568,1637.1172023351342
0.572,1653.2798546908957
0.576,1641.622589081467
0.58,1645.9999999999995
0.584,1655.381378009834
0.588,1644.5758942299258
0.592,1661.6198637621264
0.596,1643.4752170644513
0.6,1652.000000000001
0.604,1747.8685905254724
0.608,1777.9374751461876
0.612,1759.0625435524712
0.616,1769.1264086696103
0.62,1766.0000000000005
0.624,1744.6030945844361
0.628,1731.8789306642486
0.632,1748.0987938280007
0.636,1729.996603501593
0.64,1739.000000000001
0.644,1871.7872932778646
0.648,1923.8431517638435
0.652,1884.8714422170842
0.656,1909.6437351466275
0.66,1901.000000000001
0.664,1865.518810671284
0.668,1863.3587786309254
0.672,1862.5082883278383
0.676,1862.2199503003915
0.68,1862.9999999999998
0.684,1911.6358482631304
0.688,1940.0092891223621
0.692,1914.2306829192962
0.696,1933.1298157203514
0.7,1925.9999999999995
0.704,1900.8505670006914
0.708,1907.6861838302036
0.712,1894.778680101026
0.716,1907.3421289500889
0.72,1902.0
0.724,1883.9045563957657
0.728,1895.9432749661005
0.732,1874.7020673419865
0.736,1898.0373637464788
0.74,1886.9999999999982
0.744,1770.2490979029117
0.748,1739.0982603551936
0.752,1753.2773446424574
0.756,1751.4730502254577
0.76,1750.0000000000002
0.764,1690.6746683545484
0.768,1667.1238821888019
0.772,1682.4809880654052
0.776,1675.4724095752003
0.78,1677.0000000000002
0.784,1657.0899159863852
0.788,1646.1356986963551
0.792,1653.520042268067
0.796,1650.9047557336496
0.8,1651.0000000000005
0.804,1619.0848628036451
0.808,1601.8480965111783
0.812,1616.1400940642554
0.816,1606.7296412839644
0.82,1609.999999999999
0.824,1617.8761355607503
0.828,1614.9401323206866
0.832,1618.9639673116703
0.836,1616.0136247134465
0.84,1617.000000000001
0.844,1611.0410497732803
0.848,1604.4369280525016
0.852,1611.2704207326512
0.856,1605.8857710149223
0.86,1608.0000000000016
0.864,1619.0844745921813
0.868,1619.792627364247
0.872,1620.5934921804007
0.876,1619.6089236140137
0.88,1620.0
0.884,1617.4205448913663
0.888,1614.254663811246
0.892,1617.658242158607
0.896,1614.8941163789973
0.9,1616.0000000000014
0.904,1623.021644459416
0.908,1624.6282712773068
0.912,1623.2895416776216
0.916,1624.8842507009315
0.92,1623.999999999999
0.924,1604.7595181080917
0.928,1596.0874863144966
0.932,1602.4870584683083
0.936,1599.3712977021364
0.94,1600.0000000000005
0.944,1570.6664698647367
0.948,1547.567741720512
0.952,1572.9583502274168
0.956,1549.496909724687
0.96,1560.000000000002
0.964,1675.5984313849017
0.968,1713.4670448812974
0.972,1688.484645688209
0.976,1702.2439132144968
0.98,1697.9999999999975
0.984,1695.8372934099918
0.988,1703.584815825776
0.992,1694.5299462937664
0.996,1701.9494431722405
1.0,1699.0000000000014
1.004,1686.6880402811
1.008,1689.8510066185927
1.012,1682.6013334842876
1.016,1691.2118812682197
1.02,1686.9999999999993
1.024,1636.519013608122
1.028,1621.2203570492672
1.032,1629.2482207038324
1.036,1627.5072295753728
1.04,1626.999999999998
1.044,1583.2262717006952
1.048,1559.6674730173117
1.052,1580.213652431005
1.056,1565.437255646436
1.06,1570.999999999999
1.064,1595.9270585760667
1.068,1594.8952334480966
1.072,1600.2375405461662
1.076,1594.6869750059968
1.08,1596.9999999999993
1.084,1595.3890227096158
1.088,1584.4254777543124
1.092,1597.2658069075558
1.096,1588.2367009906438
1.1,1590.999999999998
1.104,1495.3402107202214
1.108,1393.9811434695255
1.112,1526.8522248561433
1.116,1381.009845820549
1.12,1453.0
1.124,2586.7985088562937
1.128,3090.592132315394
1.132,2656.100849296008
1.136,2992.65756517631
1.14,2854.999999999999
1.144,1615.582915976141
1.148,1254.1183688240053
1.152,1475.1415979289993
1.156,1362.3355390154497
1.16,1395.0
1.164,1381.397578377554
1.168,1311.9911468023497
1.172,1387.78843936976
1.176,1326.0323014592432
1.18,1350.9999999999982
1.184,1526.557123216677
1.188,1561.2073818307201
1.192,1548.9872100254215
1.196,1549.9150096078117
1.2,1550.9999999999995
1.204,1558.2016213020324
1.208,1550.058830935088
1.212,1564.33677162401
1.216,1548.355259739555
1.22,1555.9999999999986
1.224,1642.0297218558521
1.228,1668.131077651713
1.232,1652.4937645014734
1.236,1660.2127076218565
1.24,1658.0
1.244,1645.462991199258
1.248,1637.3452744207727
1.252,1647.8797070446487
1.256,1636.5482256942425
1.26,1642.0000000000014
1.264,1704.162592498719
1.268,1720.2070279838858
1.272,1715.0675571217807
1.276,1711.5114807717898
1.28,1714.9999999999977
1.284,1807.2220938051416
1.288,1849.2537299509693
1.292,1815.577865367093
1.296,1838.0966972239544
1.3,1830.0000000000005
1.304,1795.917060012266
1.308,1795.6564465692236
1.312,1791.3030288272244
1.316,1795.8313087350414
1.32,1794.0000000000005
1.324,1791.639879105488
1.328,1794.7622913201508
1.332,1792.344558484136
1.336,1791.8113003987833
1.34,1792.9999999999993
1.344,1857.6922098729328
1.348,1896.5068961747952
1.352,1859.5597798933543
1.356,1888.6200431394864
1.36,1876.9999999999993
1.364,1813.6542279936602
1.368,1815.9333400972685
1.372,1797.9257781097804
1.376,1822.4447599941275
1.38,1809.999999999999
1.384,1653.3911036117252
1.388,1603.131369218453
1.392,1633.4530021402177
1.396,1620.0684844251782
1.4,1622.9999999999968
1.404,1587.571483912701
1.408,1565.5377172766403
1.412,1583.5020261541147
1.416,1572.4451234162862
1.42,1575.999999999999
1.424,1573.9272135342778
1.428,1565.0604907736833
1.432,1574.314089722619
1.436,1567.5418706060989
1.44,1570.0000000000018
1.444,1574.4159609659343
1.448,1570.3960430663653
1.452,1575.7039188850697
1.456,1571.1760024502978
1.46,1573.0
1.464,1583.0297462031033
1.468,1584.10962868497
1.472,1584.0872023615193
1.476,1584.1174884950658
1.48,1583.9999999999977
1.484,1574.7620474633618
1.488,1569.3141967890479
1.492,1574.2481344728196
1.496,1570.59756478239
1.5,1571.9999999999982
1.504,1581.4261059797068
1.508,1584.3053729677877
1.512,1581.4928896019287
1.516,1584.648669920887
1.52,1582.9999999999993
1.524,1551.025092115049
1.528,1535.74773377486
1.532,1549.0996263334969
1.536,1538.9049530262857
1.54,1542.9999999999993
1.544,1577.747199346375
1.548,1588.481350620756
1.552,1580.4693109844086
1.556,1586.6868365831576
1.56,1583.999999999999
1.564,1547.3545398075269
1.568,1532.0697261856521
1.572,1544.1864633729265
1.576,1536.1825503350515
1.58,1538.9999999999998
1.584,1541.8190178674727
1.588,1533.9381345578452
1.592,1545.1139234222342
1.596,1533.7868988157722
1.6,1538.9999999999989
1.604,1595.479879521276
1.608,1612.7502635705346
1.612,1602.4013884448682
1.616,1607.1123177904517
1.62,1606.000000000001
1.624,1617.6398213542618
1.628,1626.6621785435773
1.632,1617.6701126070675
1.636,1625.1077933912177
1.64,1621.9999999999993
1.644,1595.9749353003422
1.648,1590.4266277700256
1.652,1591.5604105499501
1.656,1593.6367272839436
1.66,1591.9999999999984
1.664,1552.0073530897307
1.668,1533.2842269225926
1.672,1548.8141006367764
1.676,1537.9720739246102
1.68,1541.9999999999993
1.684,1561.464612079146
1.688,1562.6770719890933
1.692,1563.7391004696963
1.696,1562.9008751883434
1.7,1563.0000000000007
1.704,1540.4879138990545
1.708,1525.3880009079228
1.712,1538.9207526116058
1.716,1530.7677983896779
1.72,1532.9999999999982
1.724,1464.3051396740882
1.728,1399.7267311560431
1.732,1477.0605030350257
1.736,1400.380495094763
1.74,1436.0000000000002
1.744,1856.498555595416
1.748,1990.6343634645486
1.752,1913.7831881056468
1.756,1937.5045338161053
1.76,1937.9999999999984
1.764,2341.351183034182
1.768,2602.6083270018403
1.772,2336.287435792025
1.776,2570.757036615203
1.78,2467.999999999998
1.784,1350.6323803107207
1.788,970.1714939612226
1.792,1238.6865496708224
1.796,1070.7984083254314
1.8,1130.0000000000014
1.804,1440.8829384891217
1.808,1484.5875109768306
1.812,1480.8854197667551
1.816,1467.8951451132143
1.82,1475.999999999999
1.824,1569.5010945588558
1.828,1592.5998907332112
1.832,1583.1922678416568
1.836,1583.8231221989263
1.84,1584.9999999999986
1.844,1613.8449259251572
1.848,1621.1360438444071
1.852,1619.5436583184949
1.856,1617.144782363354
1.86,1619.0000000000011
1.864,1648.764705586877
1.868,1656.1141940634998
1.872,1654.8979427287577
1.876,1651.3714354058427
1.88,1653.9999999999998
1.884,1708.597404998728
1.888,1730.4580904947925
1.892,1714.8854188412995
1.896,1723.7399744555937
1.9,1720.999999999999
1.904,1716.7446103844725
1.908,1716.6559354190256
1.912,1719.1337003876708
1.916,1713.4570596315257
1.92,1717.0
1.924,1795.638234146527
1.928,1831.3534346324846
1.932,1803.0652615872316
1.936,1821.0485252294488
1.94,1815.0000000000002
1.944,1816.5897097784282
1.948,1834.659356695515
1.952,1813.2950304704586
1.956,1831.1867276325556
1.96,1823.9999999999998
1.964,1797.0661312107873
1.968,1807.0503664557043
1.972,1787.9206545698914
1.976,1808.4867759412855
1.98,1798.9999999999986
1.984,1717.0813984029714
1.988,1703.7523086035203
1.992,1701.7236717642518
1.996,1712.6202831525327
2.0,1705.9999999999989
2.004,1609.5336151814527
2.008,1579.9436785359567
2.012,1595.1380056924422
2.016,1591.7101069034513
2.02,1591.0
2.024,1539.6958035983064
2.028,1520.5177340468697
2.032,1530.2481473629052
2.036,1530.0223656560286
2.04,1527.9999999999995
2.044,1443.7102757796597
2.048,1403.5879621289916
2.052,1435.220777403896
2.056,1415.473927025243
2.06,1421.9999999999995
2.064,1419.7900911252975
2.068,1400.9264390327962
2.072,1423.3271707528913
2.076,1403.8038670668307
2.08,1411.9999999999984
2.084,1474.8095412110388
2.088,1488.164661607739
2.092,1482.8548837021424
2.096,1483.8398637092077
2.1,1483.9999999999977
2.104,1489.8582999698785
2.108,1492.0658777869485
2.112,1489.4154000428416
2.116,1493.1829761603115
2.12,1491.0000000000002
2.124,1436.005798276807
2.128,1406.442418331741
2.132,1433.944046264157
2.136,1412.0867691153194
2.14,1421.0000000000005
2.144,1486.2591294228096
2.148,1497.4746576763973
2.152,1496.8317853168128
2.156,1491.4563106768344
2.16,1495.000000000002
2.164,1555.6983336141407
2.168,1579.2927148614963
2.172,1561.5987611780547
2.176,1573.3475531895763
2.18,1568.999999999999
2.184,1537.327498885565
2.188,1528.6031071425884
2.192,1533.9878360782914
2.196,1531.2382122883582
2.2,1532.0
2.204,1525.080315230257
2.208,1518.3928298965566
2.212,1525.3826264316535
2.216,1519.867369671712
2.22,1521.9999999999968
2.224,1521.8546135793897
2.228,1511.0671113069711
2.232,1527.0707569655544
2.236,1509.4540358459499
2.24,1518.0000000000016
2.244,1632.6619534381975
2.248,1675.5356486033024
2.252,1644.1388870049072
2.256,1663.7726038859714
2.26,1656.9999999999993
2.264,1637.407568382381
2.268,1644.632350291415
2.272,1631.315164910892
2.276,1645.9732872216657
2.28,1638.9999999999998
2.284,1554.7942940181947
2.288,1526.2188414454658
2.292,1545.154214656441
2.296,1535.1262053372816
2.3,1538.0000000000018
2.304,1526.1998652100672
2.308,1512.9733225948285
2.312,1526.094397585664
2.316,1516.538003623232
2.32,1519.999999999999
2.324,1516.946109794784
2.328,1501.97743563706
2.332,1520.9079590457463
2.336,1503.528851532255
2.34,1511.0000000000005
2.344,1557.7453526837176
2.348,1557.3659268711785
2.352,1568.5343148801235
2.356,1554.4572685244952
2.36,1561.0000000000014
2.364,1552.2905723320562
2.368,1489.3016462211858
2.372,1592.8383500499867
2.376,1464.2090296325284
2.38,1530.9999999999966
2.384,2712.5247713417048
2.388,3270.1310524437467
2.392,2770.5457234356154
2.396,3171.8502063410274
2.4,3003.9999999999986
2.404,1373.7930290471554
2.408,860.8861575885228
2.412,1200.5657655719463
2.416,1003.9865222319128
2.42,1069.0000000000007
2.424,1305.1790719761427
2.428,1301.6168092648472
2.432,1339.4096786860266
2.436,1296.5835298773081
2.44,1315.9999999999993
2.444,1478.6080263121792
2.448,1513.9541554105776
2.452,1500.7660266855507
2.456,1501.2132581582514
2.46,1503.000000000001
2.464,1543.2817460383117
2.468,1555.528787302824
2.472,1548.9810733665931
2.476,1551.6046247028542
2.48,1550.999999999999
2.484,1542.363769085232
2.488,1534.5342394325996
2.492,1543.9675804426452
2.496,1535.084645098398
2.5,1538.999999999999
2.504,1567.2779244762119
2.508,1568.823159874655
2.512,1573.8886856630572
2.516,1565.705192219975
2.52,1570.0000000000005
2.524,1616.9834199579113
2.528,1625.5345846435196
2.532,1627.4171067145346
2.536,1618.1048007068714
2.54,1623.999999999999
2.544,1735.517732380671
2.548,1780.9666338726254
2.552,1747.5086334638995
2.556,1767.2912074669712
2.56,1760.999999999999
2.564,1766.8017740408654
2.568,1785.902611565633
2.572,1764.3765578387001
2.576,1782.2392940072045
2.58,1774.9999999999995
2.584,1731.4100078018141
2.588,1727.0245783420855
2.592,1724.955266277167
2.596,1728.74104855298
2.6,1727.0
2.604,1733.2726611496073
2.608,1747.6597587348956
2.612,1729.018106424958
2.616,1747.1740000471236
2.62,1739.000000000002
2.624,1663.6976447707548
2.628,1647.1700557479285
2.632,1651.541188487245
2.636,1655.1086052410874
2.64,1651.9999999999995
2.644,1590.9656277197453
2.648,1569.0815494288745
2.652,1582.77196683827
2.656,1576.7301352480872
2.66,1577.9999999999998
2.664,1561.0142017392807
2.668,1552.2387941828138
2.672,1557.5264183801232
2.676,1556.6673573283751
2.68,1555.9999999999957
2.684,1511.5949036935867
2.688,1486.9002365873769
2.692,1509.5904696288878
2.696,1491.603328510175
2.7,1498.9999999999998
2.704,1569.2835461087043
2.708,1593.6525860704867
2.712,1574.2787518290852
2.716,1589.420725229611
2.72,1582.9999999999995
2.724,1508.5769008481889
2.728,1481.0376297770067
2.732,1501.4678585899956
2.736,1488.402025840853
2.74,1493.0000000000014
2.744,1511.2016088751282
2.748,1510.7966559956135
2.752,1513.7386466410292
2.756,1510.8809542520235
2.76,1512.0000000000002
2.764,1509.4664585458536
2.768,1503.6121579302658
2.772,1510.3942022398005
2.776,1504.7230121883013
2.78,1506.9999999999995
2.784,1514.8744509908379
2.788,1511.1094213000283
2.792,1517.911773817477
2.796,1510.611268090897
2.8,1514.0000000000014
2.804,1546.7075718524245
2.808,1554.5324624575185
2.812,1551.5004163766218
2.816,1551.4756303617057
2.82,1552.0
2.824,1561.7265082704084
2.828,1562.7158380454562
2.832,1564.708951230002
2.836,1560.762014075027
2.84,1562.9999999999993
2.844,1597.78307471835
2.848,1609.8870788531376
2.852,1602.5823455591767
2.856,1605.2302127762218
2.86,1605.0
2.864,1631.8557911154392
2.868,1647.9291323203738
2.872,1633.3155533683682
2.876,1644.126083506467
2.88,1639.9999999999968
2.884,1624.9483027733138
2.888,1630.6910843165788
2.892,1618.9763665134117
2.896,1632.8165125277326
2.9,1626.0000000000016
2.904,1537.1434375329432
2.908,1506.1151716302195
2.912,1526.8124216981007
2.916,1515.9366486401225
2.92,1518.999999999999
2.924,1504.8661169809889
2.928,1490.5300346326262
2.932,1504.2052828238482
2.936,1494.6604653543036
2.94,1498.0000000000005
2.944,1493.6313942901252
2.948,1480.2043207150198
2.952,1495.6925461108362
2.956,1483.0942310605847
2.96,1488.0000000000014
2.964,1490.8882975238023
2.968,1472.0988702651116
2.972,1497.540119269775
2.976,1474.256374197821
2.98,1484.0000000000011
2.984,1482.574345114091
2.988,1415.4609880145
2.992,1524.850647572789
2.996,1391.3976630791788
3.0,1460.000000000001
3.004,2631.4964160655068
3.008,3171.5380952995206
3.012,2695.864914392063
3.016,3071.1511398048433
3.02,2915.999999999999
3.024,1476.4288014159451
3.028,1046.6189883900947
3.032,1314.500016197927
3.036,1174.6798114910148
3.04,1215.9999999999998
3.044,1206.411119198302
3.048,1116.2166404492327
3.052,1219.169631126536
3.056,1131.3590459178995
3.06,1167.9999999999989
3.064,1462.2149673835465
3.068,1531.1503403660984
3.072,1500.0359722218354
3.076,1507.6170833109895
3.08,1507.999999999999
3.084,1568.0326942721222
3.088,1592.2618634537637
3.092,1575.5877971367179
3.096,1585.0637097271774
3.1,1581.9999999999993
3.104,1562.3824579623383
3.108,1553.1931950546516
3.112,1563.4983266040445
3.116,1553.0590360654708
3.12,1557.9999999999975
3.124,1617.5315675442257
3.128,1636.3759859969691
3.132,1625.3194592301215
3.136,1629.8187251639663
3.14,1628.9999999999989
3.144,1643.2672527122052
3.148,1649.278259236069
3.152,1646.8840248471997
3.156,1645.357739810697
3.16,1646.9999999999986
3.164,1695.7402762321112
3.168,1718.342047661561
3.172,1700.5128147778876
3.176,1711.827787331611
3.18,1707.9999999999998
3.184,1702.0888648253842
3.188,1707.0568967864926
3.192,1701.5646478979343
3.196,1704.696298536871
3.2,1704.0000000000014
3.204,1731.5409403123335
3.208,1750.7980494908736
3.212,1732.692559457412
3.216,1745.738813450362
3.22,1740.9999999999995
3.224,1742.6796397044227
3.228,1761.5444422701364
3.232,1736.9759412539909
3.236,1760.2125952908768
3.24,1750.000000000001
3.244,1671.2933206085665
3.248,1662.215548845647
3.252,1654.642992596265
3.256,1671.7541474054797
3.26,1661.9999999999982
3.264,1508.2286554199286
3.268,1449.8805634115772
3.272,1492.084351344532
3.276,1466.0221750108965
3.28,1474.999999999999
3.284,1520.7188958341471
3.288,1531.2675078807954
3.292,1522.620247784189
3.296,1531.498724509136
3.3,1526.9999999999995
3.304,1450.629202657064
3.308,1418.835168223895
3.312,1442.9452783072852
3.316,1428.028123227698
3.32,1432.999999999997
3.324,1438.3997054402066
3.328,1429.600871618736
3.332,1440.3042706312624
3.336,1431.6350926759626
3.34,1435.0
3.344,1445.207610509195
3.348,1440.4955584484449
3.352,1448.3834848895635
3.356,1440.4301987594783
3.36,1443.9999999999977
3.364,1478.6312972907965
3.368,1489.578758615416
3.372,1481.3283387475235
3.376,1487.947191724571
3.38,1484.9999999999995
3.384,1439.1210014500743
3.388,1418.1518806912454
3.392,1436.0270773652699
3.396,1422.9864908322675
3.4,1428.0000000000014
3.404,1454.8840224815913
3.408,1455.8664686860784
3.412,1459.898222426329
3.416,1454.1181215107588
3.42,1456.9999999999993
3.424,1487.6705492463302
3.428,1496.0801245789726
3.432,1491.4985822455874
3.436,1493.5890603757653
3.44,1492.9999999999984
3.444,1486.8080533578905
3.448,1483.0585375579926
3.452,1486.7093215290836
3.456,1484.1115042541494
3.46,1484.999999999996
3.464,1475.060772732866
3.468,1463.1302482653073
3.472,1477.8361148749796
3.476,1463.3110307693753
3.48,1469.9999999999989
3.484,1545.5440397378518
3.488,1569.5689359642918
3.492,1554.6759938866926
3.496,1561.8351558957866
3.5,1560.0000000000027
3.504,1570.6937279726956
3.508,1579.1659767037665
3.512,1572.037041359599
3.516,1576.0874314525263
3.52,1574.999999999999
3.524,1597.0347316180241
3.528,1617.1071406228386
3.532,1593.75106665679
3.536,1616.563523841066
3.54,1606.0
3.544,1472.2752146227654
3.548,1422.1826541933794
3.552,1459.6786862175773
3.556,1435.1098629163234
3.56,1444.0000000000005
3.564,1492.3023443690454
3.568,1500.0802575472082
3.572,1497.0371394336066
3.576,1499.3098494534784
3.58,1498.000000000001
3.584,1448.6700702616347
3.588,1419.2292237193824
3.592,1446.787217600268
3.596,1426.351531290354
3.6,1433.9999999999995
3.604,1431.556648973738
3.608,1394.7638310189395
3.612,1446.904333954278
3.616,1392.6280081948134
3.62,1417.9999999999998
3.624,1676.4743320825096
3.628,1729.6435817837387
3.632,1731.6037558832159
3.636,1684.9261107645113
3.64,1717.0000000000014
3.644,2519.375955400872
3.648,2938.752693830706
3.652,2544.94213066834
3.656,2872.703094919753
3.66,2732.999999999998
3.664,1304.8036817570091
3.668,835.5407305664501
3.672,1159.3860784307403
3.676,960.8236386693543
3.68,1029.999999999998
3.684,1387.931223396132
3.688,1440.6840860717896
3.692,1431.8656796412822
3.696,1422.3261659841978
3.7,1429.0000000000007
3.704,1508.5293433660313
3.708,1529.4083342099611
3.712,1518.4810189417412
3.716,1523.6575286737452
3.72,1521.9999999999995
3.724,1488.6666593012833
3.728,1465.634064375563
3.732,1491.060737579119
3.736,1467.4042540722714
3.74,1478.0000000000005
3.744,1587.3676431617284
3.748,1618.6658845471334
3.752,1601.9878548654672
3.756,1607.2348782551899
3.76,1606.9999999999993
3.764,1654.5837253873133
3.768,1680.3667738373424
3.772,1657.6879416878057
3.776,1674.9665952966375
3.78,1667.9999999999982
3.784,1598.0168545256831
3.788,1569.5877128286152
3.792,1595.7825575990705
3.796,1572.3863683165496
3.8,1583.0000000000032
3.804,1721.1990056094842
3.808,1774.247721824674
3.812,1734.4966199216365
3.816,1759.801395313716
3.82,1750.999999999997
3.824,1725.9886427784852
3.828,1734.6181574032735
3.832,1719.8657297688515
3.836,1734.3282799130648
3.84,1727.9999999999995
3.844,1680.2512816248056
3.848,1672.1589919991904
3.852,1673.4528116891233
3.856,1674.8480296919477
3.86,1673.9999999999977
3.864,1687.6156735358961
3.868,1705.441562094294
3.872,1682.9194676128966
3.876,1705.2047967557646
3.88,1694.9999999999975
3.884,1589.4486527193703
3.888,1560.745963720567
3.892,1574.6037439113693
3.896,1571.6256343121559
3.9,1571.0000000000005
3.904,1531.4779675447767
3.908,1518.2113351601834
3.912,1523.5621583066113
3.916,1525.461303567541
3.92,1522.9999999999993
3.924,1454.260042583984
3.928,1425.5890433669588
3.932,1445.3706766836833
3.936,1435.9047340692464
3.94,1437.9999999999986
3.944,1391.9383084446374
3.948,1359.4121220939082
3.952,1390.833125190761
3.956,1365.9692065891504
3.96,1375.9999999999989
3.964,1450.6874284234968
3.968,1467.935103785164
3.972,1459.05397670231
3.976,1463.5730890345085
3.98,1462.0000000000005
3.984,1435.425163170847
3.988,1420.4970904053007
3.992,1434.817882333987
3.996,1423.361154781119
4.0,1427.9999999999993
4.004,1456.3944720436973
4.008,1458.1192749470229
4.012,1462.0309667504544
4.016,1455.6876926792015
4.02,1458.9999999999995
4.024,1500.8234737939952
4.028,1514.5981449493197
4.032,1505.5113042571086
4.036,1510.760104441165
4.04,1508.9999999999975
4.044,1497.9540622364764
4.048,1494.4929263345102
4.052,1497.2269883848628
4.056,1495.1616403632565
4.06,1496.0000000000023
4.064,1504.1878744630515
4.068,1507.8883178574927
4.072,1503.637687895308
4.076,1508.6235869076877
4.08,1505.999999999997
4.084,1452.1120369880693
4.088,1424.538505018511
4.092,1450.0244047569317
4.096,1429.512336598536
4.1,1437.9999999999993
4.104,1507.3862731484826
4.108,1522.6967207863947
4.112,1517.6536520816169
4.116,1516.057781148886
4.12,1518.0
4.124,1562.9374188022055
4.128,1580.4120122615227
4.132,1568.5870322287856
4.136,1574.4602731365453
4.14,1572.9999999999975
4.144,1593.2153856986895
4.148,1609.792383843286
4.152,1592.3003938536635
4.156,1607.6972792170945
4.16,1600.9999999999995
4.164,1532.7513191161975
4.168,1511.5486766252661
4.172,1524.9046917644469
4.176,1518.0234187719523
4.18,1519.9999999999982
4.184,1519.3211900740928
4.188,1517.042029527671
4.192,1517.5930271027119
4.196,1519.831115314898
4.2,1518.0
4.204,1459.8713848824073
4.208,1429.083436984786
4.212,1456.397802748792
4.216,1436.4493035852288
4.22,1444.0000000000007
4.224,1470.5557270428826
4.228,1462.3441981231779
4.232,1477.0856253346478
4.236,1463.9817943758283
4.24,1468.9999999999995
4.244,1409.7396678159917
4.248,1324.8085869585643
4.252,1442.491047488794
4.256,1310.1787000354898
4.26,1376.0
4.264,2415.2657474792964
4.268,2873.155909298568
4.272,2482.423689607573
4.276,2780.6212063897237
4.28,2659.9999999999973
4.284,1633.044460675501
4.288,1356.8922036602212
4.292,1507.2399931297136
4.296,1448.5717265785188
4.3,1458.9999999999995
4.304,1222.4393926149176
4.308,1075.9764578812756
4.312,1208.9425914091998
4.316,1108.2799338309546
4.32,1148.0000000000002
4.324,1433.014759569619
4.328,1495.1541255135473
4.332,1468.1771144585678
4.336,1475.366970445331
4.34,1474.999999999999
4.344,1490.8370793565728
4.348,1489.5602708127726
4.352,1497.072048462085
4.356,1486.9204909908765
4.36,1492.0000000000002
4.364,1541.9071763607799
4.368,1550.5845132775676
4.372,1551.7165125344086
4.376,1544.6110284705142
4.38,1548.9999999999998
4.384,1615.8096482744336
4.388,1637.2842733732105
4.392,1625.3209789552357
4.396,1629.2822184675751
4.4,1628.9999999999998
4.404,1653.3890252739113
4.408,1662.166612123884
4.412,1658.9270865263443
4.416,1656.8029310802476
4.42,1659.000000000002
4.424,1717.2088704077757
4.428,1741.6197666831094
4.432,1724.5389072465805
4.436,1733.0636521553179
4.44,1731.0000000000002
4.444,1762.0018662598131
4.448,1784.063418799357
4.452,1763.9448317596334
4.456,1778.14096921966
4.46,1773.0000000000018
4.464,1761.5925817339148
4.468,1768.9920637398234
4.472,1758.857914150778
4.476,1767.0338598278304
4.48,1763.9999999999998
4.484,1773.2978809465312
4.488,1791.8277683884944
4.492,1769.3844162444977
4.496,1789.758693133304
4.5,1781.000000000001
4.504,1720.7522964130148
4.508,1717.3928326049704
4.512,1706.792179369254
4.516,1724.5337275192874
4.52,1715.0
4.524,1581.1723053405199
4.528,1535.3474333133863
4.532,1564.4680138841359
4.536,1550.6462452553112
4.54,1554.000000000001
4.544,1520.9779664577932
4.548,1497.2300178306702
4.552,1518.332445485561
4.556,1503.8634090238907
4.56,1509.0000000000014
4.564,1518.8633861359992
4.568,1510.2853416691412
4.572,1522.5076133035318
4.576,1510.992201686111
4.58,1516.000000000001
4.584,1558.3214751573105
4.588,1568.4730711805996
4.592,1563.5924319811206
4.596,1565.3125188013005
4.6,1564.9999999999986
4.604,1565.8388258523946
4.608,1566.0529242490352
4.612,1565.909192371116
4.616,1566.2262544632308
4.62,1565.999999999999
4.624,1559.4974535554747
4.628,1557.146259162911
4.632,1557.791373222907
4.636,1559.2369621016962
4.64,1557.9999999999993
4.644,1515.9375351652334
4.648,1492.0737099225278
4.652,1515.0033828336361
4.656,1495.9732310700667
4.66,1503.9999999999995
4.664,1578.646345324188
4.668,1600.6490648979452
4.672,1586.7338556623702
4.676,1594.701471669031
4.68,1592.0000000000016
4.684,1573.3516564729132
4.688,1567.6441155993973
4.692,1571.4072446204157
4.696,1569.6798857383046
4.7,1570.0
4.704,1551.5795745389605
4.708,1537.5361200045727
4.712,1552.3472976687713
4.716,1539.6484719909586
4.72,1544.999999999999
4.724,1580.8054097799775
4.728,1582.0408644815839
4.732,1589.8451411795331
4.736,1577.1148509953587
4.74,1583.999999999999
4.744,1689.2203201218433
4.748,1729.2568174336197
4.752,1700.453683944646
4.756,1717.579073572915
4.76,1711.9999999999968
4.764,1706.8879006388565
4.768,1717.5898890347712
4.772,1704.1291873577245
4.776,1715.8415689862381
4.78,1710.9999999999989
4.784,1685.715232893166
4.788,1688.9291145184663
4.792,1677.7794576325423
4.796,1692.6364162705595
4.8,1684.9999999999977
4.804,1574.6774870793188
4.808,1533.1381520670718
4.812,1562.8177658952736
4.816,1545.5595515785626
4.82,1551.0000000000002
4.824,1543.224310000055
4.828,1524.0124867904283
4.832,1546.0276147620991
4.836,1527.1830961117507
4.84,1535.0000000000023
4.844,1586.324795646644
4.848,1592.5000954172403
4.852,1593.8722126030752
4.856,1590.7009152071726
4.86,1591.9999999999977
4.864,1549.2075763133437
4.868,1504.1881780544193
4.872,1559.6647546620898
4.876,1504.7377131651251
4.88,1529.9999999999975
4.884,1781.9911787437275
4.888,1832.3945297183307
4.892,1836.6728260392501
4.896,1788.0335775921278
4.9,1821.0000000000014
4.904,2639.852202315455
4.908,3068.492898473319
4.912,2665.0987743672226
4.916,3001.7428344362233
4.92,2857.9999999999977
4.924,1380.1224985789624
4.928,892.8538874548769
4.932,1229.463621162237
4.936,1023.5157402485867
4.94,1095.0000000000014
4.944,1444.5859426728314
4.948,1483.8557256031663
4.952,1491.7698355520827
4.956,1465.6567290599967
4.96,1479.9999999999995
4.964,1653.1993003482448
4.968,1707.916758866018
4.972,1672.3673256418033
4.976,1693.195433778213
4.98,1686.0000000000032
4.984,1627.431148329479
4.988,1603.8046548405773
4.992,1625.2953327120824
4.996,1607.265149442285
5.0,1614.999999999999
5.004,1686.985343563645
5.008,1705.2502232230408
5.012,1697.2415394635555
5.016,1698.106461909001
5.02,1698.9999999999995
5.024,1728.873753843795
5.028,1738.3651852930298
5.032,1734.5870566020824
5.036,1733.4232854955396
5.04,1734.9999999999986
5.044,1775.212319880576
5.048,1789.7028735864383
5.052,1781.994692772645
5.056,1782.8884083863663
5.06,1784.0000000000032
5.064,1841.7689277093436
5.068,1870.0694331189025
5.072,1847.6837145914967
5.076,1861.3290856937303
5.08,1856.999999999998
5.084,1871.5914924939175
5.088,1892.7553009374292
5.092,1869.6016215813506
5.096,1888.8280388867906
5.1,1881.0
5.104,1834.9725080357252
5.108,1832.4903989353413
5.112,1826.660575719431
5.116,1835.078491317815
5.12,1831.000000000001
5.124,1805.6690532476503
5.128,1809.3185104481659
5.132,1797.3178803125527
5.136,1812.6562615499706
5.14,1804.9999999999968
5.144,1715.2352434407796
5.148,1689.90622939679
5.152,1701.813558572962
5.156,1700.4365838548388
5.16,1698.999999999999
5.164,1635.0407825112122
5.168,1605.7051268897094
5.172,1628.5656835146108
5.176,1613.891995789638
5.18,1619.0000000000005
5.184,1640.1997251608932
5.188,1642.3922655714953
5.192,1641.5054771802838
5.196,1643.0902656093913
5.2,1642.0000000000014
5.204,1611.6825800017687
5.208,1597.602886281297
5.212,1608.301735432398
5.216,1602.3265823752215
5.22,1604.0000000000014
5.224,1586.3162488440992
5.228,1570.7957490952422
5.232,1586.5889243957733
5.236,1573.9037670499915
5.24,1579.0000000000011
5.244,1608.5222593813048
5.248,1609.8218497871621
5.252,1614.3157064858742
5.256,1607.548203631802
5.26,1610.999999999997
5.264,1650.8093013715256
5.268,1662.1967973686092
5.272,1656.2827140031304
5.276,1658.0111961951307
5.28,1658.0000000000007
5.284,1675.2096572140554
5.288,1684.439319568416
5.292,1676.232994468956
5.296,1682.5614067119004
5.3,1680.0000000000005
5.304,1659.1865239959902
5.308,1654.740247327886
5.312,1655.5623955294789
5.316,1657.5316876571042
5.32,1655.9999999999989
5.324,1615.5769215483842
5.328,1595.2544668895534
5.332,1613.2083395462478
5.336,1599.6371911775877
5.34,1605.0000000000002
5.344,1641.2390272663206
5.348,1647.644537664652
5.352,1646.0098638575437
5.356,1645.6837914566809
5.36,1646.0000000000002
5.364,1635.1654020782678
5.368,1622.902727596809
5.372,1638.2002949766506
5.376,1622.9967396192035
5.38,1629.9999999999995
5.384,1704.7509836002514
5.388,1725.2888798486197
5.392,1715.989722159481
5.396,1716.3261044567228
5.4,1717.9999999999977
5.404,1788.28633811514
5.408,1824.0496594094652
5.412,1792.9532573878846
5.416,1815.9469966966165
5.42,1806.9999999999995
5.424,1752.570895826037
5.428,1747.8233757730313
5.432,1741.6804579082022
5.436,1753.7714477846284
5.44,1746.9999999999993
5.444,1633.852401623609
5.448,1586.9121502281828
5.452,1623.7115265829916
5.456,1599.0477719160392
5.46,1607.999999999999
5.464,1644.9608426805166
5.468,1641.874916853783
5.472,1652.3953949506697
5.476,1640.6118114686785
5.48,1645.999999999999
5.484,1685.0335784273807
5.488,1688.2425561249308
5.492,1692.3351139982396
5.496,1686.0587636239677
5.5,1688.9999999999998
5.504,1676.9039859624904
5.508,1645.1217931021959
5.512,1690.7113108218655
5.516,1641.1685049060407
5.52,1665.0
5.524,1945.3633781688995
5.528,2021.8907746665343
5.532,1995.5743302290343
5.536,1977.0571167943638
5.54,1995.999999999999
5.544,2629.5854150046575
5.548,2983.951698643902
5.552,2640.9655583907324
5.556,2932.743831306667
5.56,2806.9999999999973
5.564,1492.751833846016
5.568,1057.002074388096
5.572,1358.3324606129859
5.576,1174.2326345982476
5.58,1237.9999999999986
5.584,1546.8180915157802
5.588,1581.8128152674017
5.592,1587.0898011925553
5.596,1567.301335869181
5.6,1578.000000000001
5.604,1683.1237836815897
5.608,1705.1793376344656
5.612,1699.7545209822274
5.616,1695.1110139312218
5.62,1698.9999999999998
5.624,1772.1397940181453
5.628,1799.897072204546
5.632,1779.8114342852662
5.636,1792.64931658121
5.64,1787.9999999999984
5.644,1749.828711901856
5.648,1735.1780863360273
5.652,1748.1485737956386
5.656,1737.4731267284747
5.66,1741.9999999999993
5.664,1778.3471765302766
5.668,1783.3428333445463
5.672,1786.1342697568634
5.676,1778.4879251817833
5.68,1783.0000000000016
5.684,1856.418222326694
5.688,1883.036218337248
5.692,1865.7085495036235
5.696,1873.991346453281
5.7,1871.9999999999986
5.704,1890.7763524112934
5.708,1902.0085792417026
5.712,1894.7910940176928
5.716,1896.1668332915017
5.72,1896.9999999999982
5.724,1960.1232741221963
5.728,1994.6335923845013
5.732,1964.699771856914
5.736,1985.6214255369773
5.74,1977.9999999999982
5.744,1958.0014841291259
5.748,1968.5220722356958
5.752,1952.2437335718166
5.756,1967.3335944400571
5.76,1961.0000000000005
5.764,1933.8588573192628
5.768,1942.047890650438
5.772,1924.768629446594
5.776,1944.0655252537215
5.78,1934.9999999999952
5.784,1850.4934028486455
5.788,1833.9519223891205
5.792,1835.5798288238898
5.796,1843.215934928323
5.8,1837.999999999999
5.804,1754.257903028498
5.808,1728.6063052216023
5.812,1740.5908322463888
5.816,1740.3226888805013
5.82,1737.9999999999993
5.824,1647.1643882550165
5.828,1604.2713795133104
5.832,1638.6334471537398
5.836,1616.0444697710664
5.84,1624.0000000000011
5.844,1648.213457240874
5.848,1641.7968245174861
5.852,1653.547269012488
5.856,1641.7757196990817
5.86,1646.999999999997
5.864,1694.027429772295
5.868,1706.8863145740158
5.872,1699.0229722785923
5.876,1703.7577720380082
5.88,1702.0000000000005
5.884,1681.6390537817697
5.888,1673.107647478719
5.892,1679.8920793279774
5.896,1675.510402411395
5.9,1676.9999999999995
5.904,1676.0567577314748
5.908,1671.1141493537111
5.912,1676.8347712109519
5.916,1672.1786759119614
5.92,1673.9999999999989
5.924,1677.5866691566998
5.928,1672.714955263254
5.932,1680.1058500863928
5.936,1672.5086747383875
5.94,1676.0000000000023
5.944,1711.004751409034
5.948,1720.2625004960871
5.952,1715.9009248330324
5.956,1716.7157804498815
5.96,1716.9999999999982
5.964,1735.1166833554653
5.968,1744.6121255424205
5.972,1735.7736024475573
5.976,1743.3305605573387
5.98,1739.9999999999995
5.984,1695.37163114922
5.988,1675.8053289301906
5.992,1692.9117850690764
5.996,1679.4734117339838
6.0,1684.9999999999986
6.004,1730.8959644911665
6.008,1741.1061377371338
6.012,1738.033742736256
6.016,1736.176909091293
6.02,1737.9999999999973
6.024,1783.7762633960683
6.028,1804.5583063189997
6.032,1787.6337335859387
6.036,1799.3676243097186
6.04,1794.9999999999973
6.044,1772.7547717183143
6.048,1771.8636422357627
6.052,1768.6849678480444
6.056,1773.3646413510517
6.06,1770.9999999999986
6.064,1745.9315134220774
6.068,1740.6991323349232
6.072,1740.8992419810934
6.076,1744.4848441058102
6.08,1741.9999999999984
6.084,1687.2993322481514
6.088,1662.803573120308
6.092,1682.2944910230372
6.096,1669.5854906991322
6.1,1674.0000000000023
6.104,1679.5146904770686
6.108,1669.875943698366
6.112,1682.668716145869
6.116,1671.2188728644285
6.12,1675.999999999999
6.124,1700.9128755547154
6.128,1699.7137597772885
6.132,1705.101924334058
6.136,1700.9220062459613
6.14,1702.0000000000016
6.144,1616.0929374101302
6.148,1534.275656423279
6.152,1637.056876997566
6.156,1528.7601315691622
6.16,1581.0000000000025
6.164,2323.1558847114416
6.168,2621.2328016112942
6.172,2388.0544340894826
6.176,2546.379778138501
6.18,2487.999999999999
6.184,2212.6226809758946
6.188,2222.285239543945
6.192,2149.6884556756995
6.196,2248.437890341275
6.2,2197.999999999999
6.204,1487.3474611984532
6.208,1213.9937685065813
6.212,1422.1795899863032
6.216,1281.6586923523464
6.22,1334.0000000000011
6.224,1683.172595305041
6.228,1762.1568255257494
6.232,1722.315693797016
6.236,1739.7581052612636
6.24,1734.9999999999989
6.244,1707.4293661405427
6.248,1694.2613393653546
6.252,1707.7317025653472
6.256,1695.9576721529975
6.26,1700.9999999999989
6.264,1737.8676512660275
6.268,1741.6548895044446
6.272,1745.5395387317076
6.276,1737.566778227088
6.28,1741.9999999999995
6.284,1806.6089566147823
6.288,1829.6364990889424
6.292,1813.8055891460451
6.296,1823.1057492267848
6.3,1819.999999999999
6.304,1801.5235707132392
6.308,1794.5862185600072
6.312,1801.7292000483417
6.316,1794.7251546988946
6.32,1797.9999999999993
6.324,1831.1990378389405
6.328,1836.6430560067984
6.332,1839.362426383486
6.336,1830.5023513537021
6.34,1836.0
6.344,1945.1152466070253
6.348,1992.3674335158287
6.352,1955.362537724732
6.356,1979.41664159116
6.36,1970.9999999999986
6.364,1947.9792258583707
6.368,1955.9645332253037
6.372,1943.3541512956253
6.376,1954.328007361448
6.38,1949.9999999999975
6.384,1946.5289076890695
6.388,1961.5098951201207
6.392,1940.9735963208097
6.396,1960.7255176319725
6.4,1951.9999999999982
6.404,1882.8561621293607
6.408,1872.6045108687936
6.412,1870.1942658670996
6.416,1879.396592902848
6.42,1873.9999999999998
6.424,1803.4162125239386
6.428,1785.0244320568004
6.432,1791.1948447352115
6.436,1794.2725976261959
6.44,1790.999999999999
6.444,1712.8021425750512
6.448,1681.7743967258566
6.452,1702.8163394397975
6.456,1692.5329321706502
6.46,1694.9999999999989
6.464,1659.710374175819
6.468,1633.8023740577546
6.472,1658.62157625061
6.476,1639.2961675927127
6.48,1647.0000000000002
6.484,1702.619052502623
6.488,1715.532979646663
6.492,1708.4568000360346
6.496,1712.6320546545433
6.5,1710.9999999999995
6.504,1683.9634690380444
6.508,1670.6144642167792
6.512,1682.130272460241
6.516,1674.1120611937781
6.52,1677.000000000001
6.524,1677.8157776256667
6.528,1667.5960575456693
6.532,1681.576658551528
6.536,1667.64797364052
6.54,1673.9999999999995
6.544,1739.3721772772224
6.548,1757.8750520308427
6.552,1747.9410531349376
6.556,1751.4189359086483
6.56,1750.999999999999
6.564,1769.064223244805
6.568,1778.1163113298587
6.572,1771.1524469787387
6.576,1775.385981367328
6.58,1773.9999999999977
6.584,1771.5117669241022
6.588,1772.9227455558116
6.592,1771.0479766243361
6.596,1772.7062112200565
6.6,1771.9999999999984
6.604,1763.1936769889448
6.608,1758.748988000251
6.612,1763.332620548147
6.616,1759.047258389326
6.62,1761.000000000001
6.624,1782.251772793228
6.628,1787.9026128010928
6.632,1785.8678790014003
6.636,1784.891126930788
6.64,1786.0000000000014
6.644,1820.057201746033
6.648,1837.1879215955917
6.652,1822.1131754386665
6.656,1833.5987061850506
6.66,1828.9999999999975
6.664,1790.7618652369679
6.668,1779.246728947493
6.672,1787.7414488836791
6.676,1781.0229608514967
6.68,1783.9999999999998
6.684,1833.2810444431088
6.688,1858.409752683914
6.692,1834.3025901442343
6.696,1854.97103989773
6.7,1845.9999999999986
6.704,1751.242133694158
6.708,1720.3470668320829
6.712,1740.9768742260096
6.716,1729.1618771562535
6.72,1733.0000000000007
6.724,1746.1347230321317
6.728,1747.1369490528716
6.732,1746.441085904688
6.736,1748.263348541704
6.74,1747.0000000000005
6.744,1711.3453478647561
6.748,1693.7546736691027
6.752,1708.0964379585257
6.756,1699.1287204512882
6.76,1701.9999999999977
6.764,1685.787627616054
6.768,1666.3129085153587
6.772,1686.7127088232191
6.776,1671.8332772851747
6.78,1676.9999999999984
6.784,1612.9370041426437
6.788,1529.481747353358
6.792,1641.5091636107782
6.796,1518.4906817215228
6.8,1578.9999999999977
6.804,2501.4554911678765
6.808,2897.322588050745
6.812,2566.9179524035576
6.816,2812.3551729739706
6.82,2714.9999999999964
6.824,1960.9859560951347
6.828,1786.4196083638853
6.832,1858.8547187123006
6.836,1854.1530878450149
6.84,1844.0000000000007
6.844,1455.677578448774
6.848,1271.0284292181107
6.852,1425.312351811032
6.856,1314.0952856087592
6.86,1357.0000000000007
6.864,1660.3435545697491
6.868,1729.6436225218404
6.872,1695.693807644228
6.876,1709.1685720292573
6.88,1705.9999999999966
6.884,1692.3387714028877
6.888,1681.8921219749764
6.892,1695.3920609062823
6.896,1681.6001549175085
6.9,1687.9999999999984
6.904,1753.0983579203494
6.908,1769.3746385177067
6.912,1763.0957341290077
6.916,1762.3140278493015
6.92,1763.9999999999982
6.924,1808.1395920026305
6.928,1825.064207343616
6.932,1814.0342665147132
6.936,1819.1862929789706
6.94,1818.000000000001
6.944,1830.1699434692496
6.948,1836.972977581927
6.952,1832.6897445645159
6.956,1833.6759946888649
6.96,1833.999999999999
6.964,1859.5142497195925
6.968,1870.9301660948568
6.972,1863.5310009905984
6.976,1865.8814853948688
6.98,1865.9999999999982
6.984,1909.9161092964669
6.988,1935.724850382837
6.992,1912.1780623846394
6.996,1929.922713160997
7.0,1923.000000000001
7.004,1879.5686443160491
7.008,1871.6723524654683
7.012,1875.2917067882531
7.016,1872.3932860771945
7.02,1873.9999999999998
7.024,1929.4565592579947
7.028,1963.0900236852171
7.032,1930.2201139275558
7.036,1956.9417184981123
7.04,1946.0000000000023
7.044,1877.1273685382453
7.048,1874.0409271449064
7.052,1861.7695397838324
7.056,1881.30921260399
7.06,1870.999999999999
7.064,1736.0735802047334
7.068,1693.557711184384
7.072,1717.530271141839
7.076,1709.3724030993756
7.08,1709.999999999999
7.084,1642.8680079341325
7.088,1607.3124911005561
7.092,1636.4686102149035
7.096,1617.3722635083618
7.1,1623.9999999999989
7.104,1637.2309730996772
7.108,1627.3067664751698
7.112,1641.7533030158452
7.116,1627.8274766419831
7.12,1633.9999999999998
7.124,1696.1311139629865
7.128,1716.7588392771731
7.132,1701.2196625149877
7.136,1712.8698123706797
7.14,1708.0000000000007
7.144,1647.576205314301
7.148,1622.4493674666514
7.152,1643.5012067203688
7.156,1627.5566835786508
7.16,1633.9999999999977
7.164,1693.547425323697
7.168,1713.7673120012935
7.172,1697.8587094700765
7.176,1710.3377538935044
7.18,1704.9999999999986
7.184,1637.886506830688
7.188,1610.6773378786977
7.192,1632.6552211809844
7.196,1616.9616735378418
7.2,1623.0
7.204,1664.1076559686155
7.208,1672.857071549663
7.212,1668.6886581732585
7.216,1670.800918025243
7.22,1669.9999999999995
7.224,1648.6223680091994
7.228,1634.7621549687178
7.232,1649.132715241669
7.236,1636.6626404769504
7.24,1641.9999999999977
7.244,1685.118977759221
7.248,1692.3311895352836
7.252,1693.2303491234188
7.256,1687.1426496530912
7.26,1690.9999999999986
7.264,1765.2799765332738
7.268,1798.2864653547626
7.272,1770.397489084925
7.276,1791.6805646338523
7.28,1782.9999999999998
7.284,1694.392297535398
7.288,1660.7891792251357
7.292,1689.0318597925448
7.296,1666.2125878327392
7.3,1675.999999999999
7.304,1791.3493376971837
7.308,1835.832402413966
7.312,1800.612008191761
7.316,1825.7796229777564
7.32,1815.9999999999989
7.324,1743.1436359893091
7.328,1726.5397812654112
7.332,1733.5048289645488
7.336,1732.7229957451436
7.34,1731.999999999997
7.344,1705.0628094848273
7.348,1694.915125439106
7.352,1700.6184872486306
7.356,1699.6231428028104
7.36,1698.9999999999986
7.364,1653.948146876392
7.368,1628.5277805908872
7.372,1651.6139271228012
7.376,1634.2479520154197
7.38,1641.0000000000014
7.384,1676.436357821678
7.388,1677.4190688918661
7.392,1682.1302685530438
7.396,1677.0765281465601
7.4,1678.999999999999
7.404,1639.137915782057
7.408,1593.4117574661714
7.412,1651.6439050064564
7.416,1591.7602012133616
7.42,1619.999999999999
7.424,1954.0334520908714
7.428,2054.196319016865
7.432,2005.9317091886587
7.436,2006.6415593810398
7.44,2016.9999999999982
7.444,2542.126163498074
7.448,2853.960921184849
7.452,2544.5441656786643
7.456,2812.714061249447
7.46,2696.0000000000014
7.464,1441.8333745503091
7.468,1016.3370753453875
7.472,1316.917066291699
7.476,1127.8127290507446
7.48,1195.0000000000005
7.484,1575.9525883345784
7.488,1644.8346413928894
7.492,1620.4775942011613
7.496,1623.6688811797517
7.5,1624.9999999999986
7.504,1650.3627662224171
7.508,1651.9234874866922
7.512,1656.3920144695137
7.516,1649.5513262235215
7.52,1653.0000000000014
7.524,1686.0768746626343
7.528,1692.873248770609
7.532,1691.100504535045
7.536,1690.2881373289586
7.54,1690.9999999999995
7.544,1691.2299733517805
7.548,1684.6921618128315
7.552,1694.6778959603907
7.556,1683.8699589388261
7.56,1688.9999999999989
7.564,1744.414395327054
7.568,1758.9176163002935
7.572,1753.0645716902438
7.576,1752.4868282413217
7.58,1754.0000000000005
7.584,1795.7448452525373
7.588,1811.2632698790471
7.592,1802.2781325706005
7.596,1804.6394102410343
7.6,1805.0000000000005
7.604,1850.5101752322144
7.608,1874.0242569946952
7.612,1854.8174843808008
7.616,1867.2073448777023
7.62,1862.9999999999975
7.624,1858.9748747709714
7.628,1866.429603510336
7.632,1858.316309750561
7.636,1863.3806632077944
7.64,1862.0000000000002
7.644,1894.5707473757902
7.648,1921.0373901575465
7.652,1893.6701816843654
7.656,1916.1898567107255
7.66,1906.999999999997
7.664,1854.4907718280551
7.668,1855.069707759293
7.672,1842.2704821304987
7.676,1859.831293976566
7.68,1850.999999999999
7.684,1752.051689776938
7.688,1726.3984185885602
7.692,1736.4814157349585
7.696,1737.8017209252016
7.7,1734.9999999999982
7.704,1658.5275465723375
7.708,1627.9161496758625
7.712,1648.9832837380743
7.716,1637.9245027695843
7.72,1640.999999999998
7.724,1632.19997673042
7.728,1624.604643646237
7.732,1628.9854444609907
7.736,1629.5327763841453
7.74,1627.9999999999998
7.744,1562.0891690011204
7.748,1527.1681024882455
7.752,1557.9705098053
7.756,1535.1466955526168
7.76,1543.999999999999
7.764,1598.5949026415142
7.768,1606.2638079803387
7.772,1606.6654973407856
7.776,1602.5791438557214
7.78,1605.0
7.784,1638.89622057711
7.788,1651.6516306057044
7.792,1641.2625818704644
7.796,1649.72139153699
7.8,1645.999999999999
7.804,1591.2996641006334
7.808,1565.7403064113282
7.812,1588.980013147125
7.816,1569.8877551222117
7.82,1578.0
7.824,1663.7263914241023
7.828,1694.3377750397472
7.832,1670.653495400609
7.836,1687.98489343361
7.84,1681.0000000000002
7.844,1611.6399664430721
7.848,1588.0329840195714
7.852,1604.733056136055
7.856,1594.5842967545402
7.86,1597.9999999999982
7.864,1603.948700421403
7.868,1598.1997488665988
7.872,1606.326354757034
7.876,1598.704764025908
7.88,1602.0000000000023
7.884,1626.0911336078366
7.888,1629.3766976522234
7.892,1630.1806551437194
7.896,1627.5290376901316
7.9,1628.9999999999998
7.904,1641.1417688389258
7.908,1640.6571778310106
7.912,1645.0794365847364
7.916,1638.5539119396376
7.92,1642.0000000000018
7.924,1690.9598491455663
7.928,1707.8951663822318
7.932,1697.328850162636
7.936,1701.7265571470007
7.94,1700.9999999999995
7.944,1733.9680355353853
7.948,1756.8889187976072
7.952,1733.4910549369865
7.956,1753.708836281266
7.96,1745.0
7.964,1661.5749840396343
7.968,1638.6177908209693
7.972,1650.2370869891865
7.976,1647.417612952655
7.98,1647.0000000000014
7.984,1600.4220273574845
7.988,1577.4114474742248
7.992,1595.3413254247012
7.996,1584.9266369854715
8.0,1588.0000000000014
8.004,1561.174516232867
8.008,1534.5846594698965
8.012,1563.0016777064272
8.016,1539.1636113855316
8.02,1548.9999999999968
8.024,1610.3698518547176
8.028,1614.2540185949629
8.032,1621.5890024836476
8.036,1611.202050391178
8.04,1616.0000000000016
8.044,1595.3728738447196
8.048,1539.7456900156267
8.052,1623.4030940549976
8.056,1526.049844505083
8.06,1574.9999999999989
8.064,2340.9604680771527
8.068,2667.2814865273454
8.072,2399.9780989734118
8.076,2592.082706250254
8.08,2517.999999999998
8.084,2041.643108719545
8.088,1974.2477127539635
8.092,1961.3741869790406
8.096,2018.5911606347518
8.1,1984.0000000000007
8.104,1389.076278718269
8.108,1144.2822192723393
8.112,1336.983053567089
8.116,1203.709950041337
8.12,1253.9999999999995
8.124,1593.3158412210196
8.128,1667.6526909209324
8.132,1633.3777107375795
8.136,1644.8203098752335
8.14,1642.9999999999975
8.144,1657.9517014385056
8.148,1661.9956631964646
8.152,1661.7328797587052
8.156,1659.7740765287022
8.16,1661.0000000000014
8.164,1667.1676955705343
8.168,1662.229883428477
8.172,1671.6555250428326
8.176,1660.5152423005998
8.18,1665.999999999999
8.184,1733.8017438692573
8.188,1755.7881337888582
8.192,1742.0026225974427
8.196,1749.0532689824706
8.2,1747.0
8.204,1736.1800287976505
8.208,1728.1345735977648
8.212,1740.0044105754582
8.216,1725.5919230771747
8.22,1733.000000000004
8.224,1849.0435596313596
8.228,1895.476182659931
8.232,1860.590290521725
8.236,1882.5036305236194
8.24,1875.0
8.244,1853.956851853952
8.248,1858.861778335484
8.252,1851.0628833819899
8.256,1857.024507860022
8.26,1855.0
8.264,1869.7504617838194
8.268,1885.4413918761693
8.272,1869.478001561413
8.276,1881.3535964185141
8.28,1877.0000000000002
8.284,1879.8866002008908
8.288,1897.780161538832
8.292,1875.354469909459
8.296,1895.5568698475317
8.3,1886.9999999999993
8.304,1839.6500022740738
8.308,1844.7978464224195
8.312,1825.6156724291254
8.316,1850.4784924026287
8.32,1837.9999999999993
8.324,1685.7045562478543
8.328,1639.3842783670275
8.332,1664.713089419497
8.336,1656.6251438809445
8.34,1657.0000000000005
8.344,1587.5901779687513
8.348,1553.5599440152612
8.352,1579.396928728809
8.356,1564.5236630241488
8.36,1569.0000000000005
8.364,1553.75792172129
8.368,1534.9424724587725
8.372,1553.9221716595307
8.376,1539.4152031480603
8.38,1544.999999999999
8.384,1573.4901669020965
8.388,1575.9531080245638
8.392,1576.63587061003
8.396,1576.0917761758467
8.4,1575.9999999999982
8.404,1545.2588905939033
8.408,1523.7407635817888
8.412,1545.966287061558
8.416,1526.7974981817279
8.42,1535.0000000000011
8.424,1610.1121704693405
8.428,1630.574774117821
8.432,1619.351788827512
8.436,1623.9924020208261
8.44,1622.9999999999984
8.444,1631.9858383255405
8.448,1637.833797511781
8.452,1632.7179263587607
8.456,1636.4123427557106
8.46,1635.000000000001
8.464,1626.74786676112
8.468,1626.3836664760513
8.472,1624.6900194233672
8.476,1627.679949204306
8.48,1626.000000000001
8.484,1595.9795667872495
8.488,1583.358439104717
8.492,1592.9344275291323
8.496,1587.1667741679053
8.5,1589.0000000000007
8.504,1582.3488234295337
8.508,1572.3107319151245
8.512,1583.9069916834733
8.516,1573.5418056139029
8.52,1577.9999999999982
8.524,1613.9696260092642
8.528,1620.4981093648935
8.532,1620.0943125661704
8.536,1616.7844770915954
8.54,1619.0000000000005
8.544,1658.3609017624508
8.548,1673.529165140287
8.552,1662.6575740859425
8.556,1669.1234948508143
8.56,1666.9999999999993
8.564,1661.7312711448521
8.568,1662.7904676440537
8.572,1661.495708575083
8.576,1661.7657931751412
8.58,1661.999999999998
8.584,1688.184420452816
8.588,1707.2890657277571
8.592,1685.8252569541694
8.596,1706.6709177782218
8.6,1696.9999999999993
8.604,1571.824561228276
8.608,1523.9872808722012
8.612,1560.3671128060703
8.616,1536.1072090484085
8.62,1544.9999999999977
8.624,1595.7543199226493
8.628,1604.3789837987392
8.632,1601.0695456668032
8.636,1603.0109581865063
8.64,1602.0000000000005
8.644,1561.415329637276
8.648,1536.180708742359
8.652,1560.3818121067711
8.656,1541.9659209911642
8.66,1548.9999999999986
8.664,1553.337464842472
8.668,1524.0072119423871
8.672,1567.035916335013
8.676,1521.9778965928606
8.68,1542.9999999999995
8.684,1740.481616950512
8.688,1767.3415349079614
8.692,1792.4396681925791
8.696,1726.7050958995214
8.7,1767.000000000001
8.704,2668.6563770106977
8.708,3127.850961732804
8.712,2701.2257053150515
8.716,3053.5677365547745
8.72,2903.999999999999
8.724,1394.851846002506
8.728,905.8241719296304
8.732,1238.253357649123
8.736,1039.0118946420287
8.74,1106.9999999999995
8.744,1414.9027768108472
8.748,1443.277324230684
8.752,1454.8094933446557
8.756,1431.0401496232248
8.76,1443.000000000002
8.764,1543.7647580627645
8.768,1560.006709447872
8.772,1560.746118039172
8.776,1551.0588599169103
8.78,1556.999999999997
8.784,1644.99497563174
8.788,1675.893385462005
8.792,1654.4743288466705
8.796,1667.701216691652
8.8,1662.9999999999993
8.804,1624.1908855672466
8.808,1608.5933457740089
8.812,1622.9461546407147
8.816,1610.6330585040362
8.82,1615.999999999999
8.824,1668.213076022312
8.828,1681.3659325522146
8.832,1676.390083356331
8.836,1675.2720382673967
8.84,1676.9999999999986
8.844,1725.4229939738
8.848,1746.1947007394135
8.852,1730.8365793902692
8.856,1739.8038885687265
8.86,1736.9999999999977
8.864,1738.316483769191
8.868,1743.9732202815333
8.872,1739.213778020238
8.876,1740.9006407131947
8.88,1740.999999999999
8.884,1782.1133462118992
8.888,1808.2751124868425
8.892,1782.937705359874
8.896,1803.3068059130774
8.9,1794.999999999999
8.904,1735.1192479257395
8.908,1724.1573693619735
8.912,1726.737811868046
8.916,1728.1531847274903
8.92,1727.0000000000005
8.924,1723.7893118121674
8.928,1730.8456314219213
8.932,1719.574931309496
8.936,1731.6311873912282
8.94,1725.9999999999982
8.944,1673.5665014505935
8.948,1664.0050071785167
8.952,1663.582464366329
8.956,1670.2914998134556
8.96,1666.0000000000016
8.964,1596.8897829232192
8.968,1574.2505309450805
8.972,1586.583683527629
8.976,1583.4343890794719
8.98,1582.9999999999977
8.984,1532.247825487747
8.988,1508.0977164463675
8.992,1526.219978534956
8.996,1516.0996270171995
9.0,1518.9999999999998
9.004,1499.6599805276812
9.008,1481.413879182629
9.012,1499.529413302537
9.016,1485.56241778692
9.02,1491.0000000000002
9.024,1518.9555343283337
9.028,1519.8111131230512
9.032,1523.6847584565899
9.036,1518.572046344941
9.04,1520.9999999999995
9.044,1541.8790855659122
9.048,1546.5099669465874
9.052,1544.2711072341485
9.056,1545.5746732161542
9.06,1544.9999999999966
9.064,1527.3589786934217
9.068,1516.3213485943825
9.072,1527.4297973015618
9.076,1518.006038644586
9.08,1522.0000000000007
9.084,1557.123130565443
9.088,1566.3990826395088
9.092,1561.2765145318326
9.096,1563.6969418298027
9.1,1563.000000000001
9.104,1558.1871297657733
9.108,1555.7441510715287
9.112,1558.2513203622773
9.116,1556.04512720961
9.12,1557.0000000000002
9.124,1566.8968960057189
9.128,1570.979470528499
9.132,1566.7863074149147
9.136,1571.2805503059255
9.14,1568.9999999999998
9.144,1525.2397965515102
9.148,1503.450648334622
9.152,1523.2894478194046
9.156,1507.5160352615171
9.16,1514.000000000001
9.164,1566.8045536780692
9.168,1578.8681250948748
9.172,1574.2788126674877
9.176,1573.972511850996
9.18,1574.9999999999989
9.184,1605.4959562383833
9.188,1619.46411134739
9.192,1607.750152227077
9.196,1616.5556383988962
9.2,1612.999999999999
9.204,1577.367802736484
9.208,1563.8986438831002
9.212,1575.2940508964798
9.216,1565.8756319487084
9.22,1570.000000000001
9.224,1627.8506619839914
9.228,1655.6515971276835
9.232,1628.616015861885
9.236,1653.14973128441
9.24,1642.0000000000002
9.244,1494.5678282537435
9.248,1435.399230428618
9.252,1482.4926666862611
9.256,1449.428411980568
9.26,1461.9999999999986
9.264,1541.7303407150262
9.268,1555.5297572489908
9.272,1552.0537799598412
9.276,1551.0970100323927
9.28,1552.0000000000002
9.284,1545.7486945937717
9.288,1534.2187270909253
9.292,1547.9170302685834
9.296,1536.7890994651757
9.3,1540.999999999998
9.304,1512.6330672971924
9.308,1466.0661723161218
9.312,1528.1185366286431
9.316,1463.403411966024
9.32,1494.0
9.324,1846.7323959569862
9.328,1945.7551433073527
9.332,1905.924763621866
9.336,1893.1575730467698
9.34,1910.999999999999
9.344,2577.285806212224
9.348,2955.3578458402662
9.352,2587.6798263662567
9.356,2901.368584470828
9.36,2765.999999999995
9.364,1346.6138472226685
9.368,874.7221858099144
9.372,1201.9904178336976
9.376,1001.1019976409233
9.38,1071.0000000000005
9.384,1422.6787327366967
9.388,1469.6093189656747
9.392,1466.5960839960271
9.396,1452.6736644491484
9.4,1460.999999999997
9.404,1542.4484072183845
9.408,1557.7084264256055
9.412,1555.3260371014644
9.416,1551.1059094584286
9.42,1554.0000000000014
9.424,1583.7263358150065
9.428,1586.0701477175116
9.432,1591.005575957865
9.436,1582.3598442021075
9.44,1586.999999999997
9.444,1645.3343586881103
9.448,1662.0209465282474
9.452,1653.998001727297
9.456,1655.3950646768653
9.46,1655.9999999999989
9.464,1683.9876043661297
9.468,1693.5098581554817
9.472,1689.3534284742163
9.476,1688.5416445336477
9.48,1690.0000000000011
9.484,1735.0561408658532
9.488,1754.7231495033348
9.492,1740.2215049061379
9.496,1748.533310456555
9.5,1746.0000000000032
9.504,1748.4855737926196
9.508,1753.3470149247705
9.512,1750.1875748460736
9.516,1749.9705997298317
9.52,1750.9999999999986
9.524,1799.6670766483169
9.528,1825.020343537177
9.532,1803.8876745579296
9.536,1817.6345763040774
9.54,1812.9999999999968
9.544,1820.8218603033927
9.548,1840.2103624217948
9.552,1817.577731535944
9.556,1837.0539604192168
9.56,1828.9999999999977
9.564,1785.1512582046848
9.568,1787.6166500724648
9.572,1774.4703282547566
9.576,1791.0903137558196
9.58,1782.9999999999975
9.584,1706.6401501966907
9.588,1693.9864403003526
9.592,1691.0361454231638
9.596,1703.9256023322216
9.6,1695.9999999999986
9.604,1560.5639599313276
9.608,1508.892790273364
9.612,1545.3005960478797
9.616,1524.4616686451425
9.62,1531.0000000000018
9.624,1535.9821101968128
9.628,1526.5673888863464
9.632,1536.4517722097712
9.636,1529.9528207596234
9.64,1532.0000000000005
9.644,1520.5822113189593
9.648,1508.7927212787224
9.652,1520.3040282899296
9.656,1511.9469894826818
9.66,1514.9999999999982
9.664,1520.8327939264086
9.668,1515.4447177987336
9.672,1522.918048140207
9.676,1516.1355523615462
9.68,1518.9999999999998
9.684,1539.9832919647006
9.688,1544.5271068860538
9.692,1542.0768856334428
9.696,1543.8128358466363
9.7,1542.9999999999998
9.704,1524.7882005589897
9.708,1515.701393461088
9.712,1523.280624940261
9.716,1518.3015443778404
9.72,1520.0
9.724,1519.172420894669
9.728,1514.0455413492052
9.732,1519.7156347301789
9.736,1515.4743462918495
9.74,1517.0000000000005
9.744,1513.3255580547402
9.748,1505.3884288209588
9.752,1514.8278894188902
9.756,1506.4386430966088
9.76,1509.9999999999973
9.764,1535.7700709094402
9.768,1539.7234529220395
9.772,1539.7083329531301
9.776,1538.0537758159871
9.78,1538.9999999999998
9.784,1542.8284130023392
9.788,1539.7221763102632
9.792,1545.0331444085796
9.796,1539.471463091302
9.8,1541.9999999999968
9.804,1558.99896174241
9.808,1557.9234711720223
9.812,1564.5036343528907
9.816,1554.9132578545766
9.82,1560.0000000000005
9.824,1639.9610584389584
9.828,1672.7144179630964
9.832,1646.7589011267412
9.836,1664.8833266211059
9.84,1657.9999999999995
9.844,1612.9291576253968
9.848,1605.207823328397
9.852,1605.9219958227263
9.856,1609.3927527608432
9.86,1606.999999999998
9.864,1559.887052112792
9.868,1540.3706770588424
9.872,1554.8360917662606
9.876,1546.4241076839792
9.88,1548.9999999999961
9.884,1536.7567473560086
9.888,1521.733389853704
9.892,1537.9964080216857
9.896,1524.5266591838963
9.9,1529.999999999999
9.904,1559.9882473727844
9.908,1560.2493084221126
9.912,1565.2270423220662
9.916,1559.8605070307626
9.92,1561.9999999999995
9.924,1535.8937363698383
9.928,1502.7792260414903
9.932,1543.6378485487728
9.936,1504.7083591863297
9.94,1521.999999999998
9.944,1635.7923282718261
9.948,1618.2953313999226
9.952,1686.58242252195
9.956,1582.9287461831536
9.96,1640.0
9.964,2742.8324846964215
9.968,3279.228609782923
9.972,2791.243649872401
9.976,3188.395197947227
9.98,3020.999999999998
9.984,1349.5431361778615
9.988,807.511965953674
9.992,1178.4711134341817
9.996,952.801018375792
10.0,1030.9999999999986
10.004,1429.6530374479232
10.008,1487.9807943582045
10.012,1477.4446544168484
10.016,1468.9879959042444
10.02,1475.000000000001
10.024,1523.477952912211
10.028,1523.1959898767932
10.032,1535.2653426630982
10.036,1518.756240148357
10.04,1526.9999999999977
10.044,1617.3396042187767
10.048,1641.401803757206
10.052,1630.4254757670797
10.056,1632.0079724000425
10.06,1632.9999999999982
10.064,1674.5400275008146
10.068,1690.654408658577
10.072,1680.5735976148508
10.076,1684.5903618228513
10.08,1683.9999999999977
10.084,1708.6951981302395
10.088,1722.6681214689156
10.092,1710.7812341425276
10.096,1719.119057880061
10.1,1715.9999999999986
10.104,1692.6423370031248
10.108,1683.529200984866
10.112,1693.1037564285916
10.116,1682.9379005201442
10.12,1687.9999999999977
10.124,1769.9784314566432
10.128,1804.7352328285765
10.132,1777.2497210042152
10.136,1795.5884884715929
10.14,1789.000000000001
10.144,1764.3518478028054
10.148,1766.778424544467
10.152,1760.5355216426826
10.156,1766.0307195285
10.16,1763.9999999999977
10.164,1780.119412772683
10.168,1800.836674957046
10.172,1776.1996603270095
10.176,1799.091657661077
10.18,1788.999999999999
10.184,1699.655569686497
10.188,1680.4406709073169
10.192,1685.5087666442237
10.196,1689.3869325422827
10.2,1685.9999999999982
10.204,1624.9369411094892
10.208,1606.2108634632173
10.212,1614.666170295433
10.216,1614.9269585018192
10.22,1612.999999999999
10.224,1546.409024585254
10.228,1516.5936730395129
10.232,1539.434753302859
10.236,1525.150045938281
10.24,1530.000000000001
10.244,1548.2838134016297
10.248,1551.291865385696
10.252,1547.3999089433046
10.256,1553.899853486191
10.26,1549.9999999999995
10.264,1458.70868773251
10.268,1413.1724790549085
10.272,1453.4971678760057
10.276,1422.6627117274957
10.28,1434.9999999999995
10.284,1530.0629129300132
10.288,1553.1129820443732
10.292,1541.1842245974653
10.296,1546.3772602027852
10.3,1545.0000000000018
10.304,1538.383593392646
10.308,1535.7806053764243
10.312,1537.7725884096756
10.316,1537.0039837995791
10.32,1537.0000000000014
10.324,1516.7327943282637
10.328,1502.6594141772084
10.332,1517.0685020508447
10.336,1504.8211517060988
10.34,1509.9999999999989
10.344,1553.9507631365725
10.348,1564.7372934360892
10.352,1559.454181328256
10.356,1561.3728534687018
10.36,1560.999999999999
10.364,1559.661392731337
10.368,1558.028280929384
10.372,1559.9467658173646
10.376,1558.5628332166746
10.38,1559.0000000000011
10.384,1549.1301675527206
10.388,1539.9778851984602
10.392,1550.0849595563534
10.396,1541.3010282176901
10.4,1544.9999999999977
10.404,1567.525399616825
10.408,1566.9491048836517
10.412,1573.4651244416525
10.416,1564.2631655784876
10.42,1569.0000000000011
10.424,1630.094281078837
10.428,1649.7507415481
10.432,1638.0069620712095
10.436,1643.0346017632646
10.44,1641.9999999999977
10.444,1655.2165431783553
10.448,1661.5895002013972
10.452,1658.4876947235646
10.456,1657.5200614178605
10.46,1659.000000000001
10.464,1720.2872920347368
10.468,1756.0265634349025
10.472,1720.8556934473097
10.476,1751.0866226478552
10.48,1737.9999999999982
10.484,1601.9265927453532
10.488,1558.3459074934146
10.492,1586.6119377110122
10.496,1571.5767181730018
10.5,1575.9999999999986
10.504,1567.520786999902
10.508,1553.137356339257
10.512,1568.0954146867575
10.516,1556.6496217541396
10.52,1561.0
10.524,1573.5754519504123
10.528,1567.846067777015
10.532,1576.4458188178958
10.536,1569.5891813918868
10.54,1571.9999999999995
10.544,1543.1223423854178
10.548,1510.7549171485525
10.552,1548.0219183888971
10.556,1515.3356720452198
10.56,1528.9999999999977
10.564,1564.138419283985
10.568,1507.2932289703008
10.572,1611.1563199218929
10.576,1479.5104805867243
10.58,1548.0000000000016
10.584,2737.1476113595095
10.588,3287.9830138857346
10.592,2801.6697075085312
10.596,3186.2713210843663
10.6,3026.9999999999977
10.604,1533.1470348636567
10.608,1078.8792342780923
10.612,1369.5486013317952
10.616,1209.7598846239325
10.62,1260.0000000000002
10.624,1365.7739189958447
10.628,1322.6799456255628
10.632,1386.7371471850734
10.636,1328.0568757582703
10.64,1352.9999999999995
10.644,1546.6465516729706
10.648,1587.4033867134085
10.652,1572.7851771364317
10.656,1572.5839431106128
10.66,1575.0000000000005
10.664,1627.5816552633905
10.668,1644.5978742661846
10.672,1634.4939402855393
10.676,1639.526115716722
10.68,1637.9999999999975
10.684,1618.942056980245
10.688,1605.8812986305402
10.692,1620.755694245399
10.696,1606.660545683273
10.7,1612.9999999999993
10.704,1673.351964278018
10.708,1687.2687576806345
10.712,1682.9147363468778
10.716,1680.966511265647
10.72,1682.9999999999995
10.724,1720.2278386085757
10.728,1729.9621530378768
10.732,1727.7510641638519
10.736,1724.1076339742333
10.74,1727.000000000001
10.744,1784.1296672669714
10.748,1803.2919065505562
10.752,1793.8771321216554
10.756,1793.974094205512
10.76,1795.999999999999
10.764,1881.5388324940868
10.768,1923.6112324533362
10.772,1889.2753905694567
10.776,1911.8493245499876
10.78,1903.9999999999973
10.784,1891.9047192276082
10.788,1906.1114066727791
10.792,1887.3820966110206
10.796,1903.512564250618
10.8,1897.0000000000002
10.804,1874.5674325856785
10.808,1885.0044397316783
10.812,1866.3459116335482
10.816,1885.9856418431918
10.82,1876.9999999999993
10.824,1800.3533381029615
10.828,1787.851578177506
10.832,1786.1062251941246
10.836,1796.096333785956
10.84,1790.0000000000018
10.844,1699.596818060296
10.848,1671.2934683452793
10.852,1686.1296541614095
10.856,1682.7427562999942
10.86,1681.999999999997
10.864,1619.2448509804465
10.868,1589.4966128189956
10.872,1612.3745575001262
10.876,1598.5740378074925
10.88,1603.0000000000016
10.884,1600.915909114416
10.888,1589.5317149794005
10.892,1602.0183531322018
10.896,1592.185470439448
10.9,1596.0000000000014
10.904,1613.2262543133115
10.908,1612.6674310761007
10.912,1616.087462244768
10.916,1612.3743145991918
10.92,1613.9999999999986
10.924,1624.6482109480667
10.928,1626.7193242021872
10.932,1625.153237902406
10.936,1627.2449259201346
10.94,1626.0
10.944,1592.9204426006763
10.948,1575.6640564379948
10.952,1590.8916495275585
10.956,1579.8197043714797
10.96,1583.9999999999982
10.964,1598.8639647621717
10.968,1594.029559899745
10.972,1603.5258535809864
10.976,1593.149438182214
10.98,1597.9999999999993
10.984,1646.7769887434908
10.988,1659.2666491889713
10.992,1653.861951779672
10.996,1654.2342814712565
11.0,1654.999999999999
11.004,1683.796424837432
11.008,1697.185978902987
11.012,1686.0928328310156
11.016,1694.1611791502482
11.02,1691.0000000000005
11.024,1665.333261363842
11.028,1658.48197457985
11.032,1662.026732285491
11.036,1661.136358039441
11.04,1660.9999999999989
11.044,1641.6996755205014
11.048,1630.4402759899035
11.052,1640.6976082926892
11.056,1633.1592970008574
11.06,1635.9999999999995
11.064,1642.1766644527852
11.068,1635.1847851010382
11.072,1646.2373923891396
11.076,1634.52779619314
11.08,1639.9999999999995
11.084,1696.5049113008397
11.088,1710.5070753983512
11.092,1705.882386231363
11.096,1703.2907106940002
11.1,1705.9999999999966
11.104,1785.0801900228373
11.108,1825.7481078104408
11.112,1788.344476876423
11.116,1818.9174146798498
11.12,1806.0000000000002
11.124,1673.767933558715
11.128,1629.3792895496174
11.132,1660.7036486319428
11.136,1641.0817701027938
11.14,1648.0
11.144,1682.4615305881598
11.148,1686.6554050887926
11.152,1686.2917815896922
11.156,1686.1070368929484
11.16,1685.9999999999982
11.164,1657.7726881166695
11.168,1636.9153297239009
11.172,1658.9956233932512
11.176,1639.8627601164353
11.18,1647.9999999999982
11.184,1710.6572303955008
11.188,1721.3083368982236
11.192,1720.194942393133
11.196,1717.4912133319924
11.2,1719.0000000000005
11.204,1679.6743857091828
11.208,1627.757423194537
11.212,1699.426350074446
11.216,1619.6277499608955
11.22,1658.9999999999982
11.224,2235.22940360849
11.228,2464.4545375845883
11.232,2290.2919748998206
11.236,2401.384886775588
11.24,2362.9999999999964
11.244,2312.2666840592938
11.248,2407.4425831716057
11.252,2266.3657709367344
11.256,2415.7410489380823
11.26,2344.999999999999
11.264,1450.2522340849114
11.268,1119.7826170536864
11.272,1366.22758400222
11.276,1202.7965613634208
11.28,1263.0000000000002
11.284,1649.5726276610349
11.288,1732.2352289716944
11.292,1694.0379601740585
11.296,1707.7545740540495
11.3,1705.0000000000002
11.304,1702.5791898735479
11.308,1697.447753436954
11.312,1706.0209416224934
11.316,1696.4342797820925
11.32,1700.9999999999989
11.324,1747.3735102240037
11.328,1758.676171957543
11.332,1754.3099232234513
11.336,1754.1559722436991
11.34,1754.9999999999977
11.344,1771.4827397830184
11.348,1774.2970614943385
11.352,1775.723902991113
11.356,1771.4359940394454
11.36,1773.9999999999989
11.364,1814.6362630006436
11.368,1828.663290935373
11.372,1819.941799333128
11.376,1823.976687430967
11.38,1822.9999999999975
11.384,1823.4383135955686
11.388,1820.897134640663
11.392,1827.1848366353688
11.396,1817.9776268889987
11.4,1822.9999999999993
11.404,1907.8861480693174
11.408,1941.8372309103283
11.412,1917.1281227711834
11.416,1931.4275081874873
11.42,1927.0
11.424,1935.3036147304622
11.428,1949.973123613136
11.432,1935.2107317154537
11.436,1945.5790174912192
11.44,1941.9999999999993
11.444,1952.1694444872537
11.448,1970.2780358148764
11.452,1949.8702258424669
11.456,1966.7845454785936
11.46,1959.9999999999986
11.464,1936.266900399389
11.468,1948.1670194276735
11.472,1926.199118907318
11.476,1950.5418232514894
11.48,1938.9999999999989
11.484,1816.2909124875112
11.488,1783.6554321728536
11.492,1798.058715919754
11.496,1797.187511452019
11.5,1795.0000000000002
11.504,1715.9012460809492
11.508,1682.3292139373095
11.512,1706.3958789043381
11.516,1693.1122045908912
11.52,1697.0000000000005
11.524,1685.5380698352064
11.528,1671.9692307915623
11.532,1684.509082087369
11.536,1676.3411078358993
11.54,1679.000000000001
11.544,1670.5070947658614
11.548,1658.3489540022206
11.552,1671.0526186748962
11.556,1661.2740065203682
11.56,1664.9999999999986
11.564,1674.863102798472
11.568,1668.4281758480156
11.572,1678.6541919612891
11.576,1668.4114386926535
11.58,1672.9999999999982
11.584,1712.2711944999687
11.588,1720.046513182163
11.592,1718.6303016126592
11.596,1716.1361047703415
11.6,1718.0
11.604,1755.2153961200574
11.608,1771.574385432637
11.612,1757.5624226128712
11.616,1768.760982616436
11.62,1763.9999999999961
11.624,1705.2974781883006
11.628,1680.3404687716748
11.632,1702.1408575605913
11.636,1684.598637632739
11.64,1692.0
11.644,1770.191941498579
11.648,1798.266589595797
11.652,1776.3989753106985
11.656,1792.598981462966
11.66,1786.0000000000023
11.664,1715.6281619818642
11.668,1689.484007093757
11.672,1709.6159386096533
11.676,1695.9545752781478
11.68,1700.9999999999973
11.684,1722.6455631920649
11.688,1719.7519006599089
11.692,1728.292090671192
11.696,1718.0187015468484
11.7,1723.0000000000018
11.704,1776.0957422261506
11.708,1789.1494347606845
11.712,1784.949244379247
11.716,1782.587444995539
11.72,1785.0000000000002
11.724,1845.531462232808
11.728,1871.6743764674097
11.732,1851.9392133663164
11.736,1863.777496820795
11.74,1860.0000000000011
11.744,1869.4459037308598
11.748,1887.4110630957227
11.752,1865.5290335934549
11.756,1886.4647272373131
11.76,1877.0000000000005
11.764,1772.2713938819165
11.768,1738.0768927467211
11.772,1760.4193503250692
11.776,1748.4419991240895
11.78,1751.9999999999982
11.784,1748.138552436535
11.788,1739.115635185475
11.792,1747.948584602984
11.796,1742.213072131998
11.8,1744.0000000000011
11.804,1726.7569709398722
11.808,1710.006500264816
11.812,1727.1965114474121
11.816,1714.0808009974153
11.82,1718.999999999999
11.824,1715.7346891378652
11.828,1693.319733186218
11.832,1721.930807656811
11.836,1696.6529138506776
11.84,1706.9999999999984
11.844,1692.500072018891
11.848,1611.3058686827762
11.852,1738.8237953080998
11.856,1585.9221077059824
11.86,1663.999999999999
11.864,2978.2926655104916
11.868,3580.38858160602
11.872,3051.4425648712063
11.876,3468.5131860273946
11.88,3295.9999999999955
11.884,1674.034884738152
11.888,1176.3422321800842
11.892,1499.3298584550964
11.896,1316.911849111533
11.9,1375.9999999999989
11.904,1561.6958668935722
11.908,1544.4296752571963
11.912,1590.4070795586485
11.916,1543.0685100686578
11.92,1563.9999999999973
11.924,1738.957104937406
11.928,1779.3761138857944
11.932,1761.438650286355
11.936,1766.1631937591974
11.94,1765.9999999999995
11.944,1777.3734018811783
11.948,1775.7871791827824
11.952,1782.3513246580612
11.956,1773.612778734614
11.96,1778.000000000001
11.964,1823.929452611878
11.968,1833.3395954725952
11.972,1832.5448822999197
11.976,1827.6383260349376
11.98,1831.0000000000002
11.984,1889.0388759568907
11.988,1908.8466755151455
11.992,1897.334213394573
11.996,1901.313155629086
12.0,1900.999999999998
12.004,1930.428988380499
12.008,1943.5191690370414
12.012,1935.5662165155754
12.016,1937.4867777184754
12.02,1938.0000000000027
12.024,1987.3945638478708
12.028,2013.0798509213093
12.032,1992.021799455309
12.036,2005.5349998840356
12.04,2000.999999999999
12.044,2003.2379308909822
12.048,2017.0425740238497
12.052,2001.0500598294675
12.056,2014.3471258287705
12.06,2008.999999999999
12.064,1982.350948627077
12.068,1983.1043013076496
12.072,1977.5479231749946
12.076,1983.603062414436
12.08,1980.999999999999
12.084,1976.9587507183446
12.088,1985.6809481598807
12.092,1973.492674166745
12.096,1984.7499191886081
12.1,1979.9999999999995
12.104,1963.9238991962554
12.108,1975.9149916876047
12.112,1954.2105597458617
12.116,1979.16961764714
12.12,1967.0000000000002
12.124,1815.1530490479977
12.128,1764.2609142663655
12.132,1797.2207859714817
12.136,1780.1582303181433
12.14,1784.9999999999968
12.144,1775.419431908801
12.148,1761.9422361751074
12.152,1774.7998293122396
12.156,1765.7099479581495
12.16,1769.0000000000007
12.164,1781.4542086408846
12.168,1781.4189520561208
12.172,1782.6399255700421
12.176,1781.825242213627
12.18,1781.9999999999986
12.184,1777.1450118448838
12.188,1775.6835333485928
12.192,1775.0284882120902
12.196,1777.9289103533063
12.2,1776.0000000000002
12.204,1731.1554277701343
12.208,1710.4231707611848
12.212,1727.26080121358
12.216,1715.9406394666994
12.22,1719.9999999999986
12.224,1734.0812887523953
12.228,1732.0577318697726
12.232,1736.2768233154675
12.236,1732.6594429615127
12.24,1733.9999999999982
12.244,1727.2839876196476
12.248,1717.2587900251963
12.252,1729.06826338743
12.256,1718.3788896246429
12.26,1723.0000000000027
12.264,1760.6319887703035
12.268,1767.8378607813966
12.272,1766.6534840203562
12.276,1764.2776112079805
12.28,1766.0000000000005
12.284,1797.100863211453
12.288,1809.487079952154
12.292,1799.7498204529743
12.296,1806.9134140709798
12.3,1803.9999999999982
12.304,1769.0701671702823
12.308,1753.742962267834
12.312,1767.3637625526899
12.316,1756.4955049637942
12.32,1760.9999999999973
12.324,1798.9601505986657
12.328,1808.051546375366
12.332,1803.9873365484502
12.336,1805.0253332217017
12.34,1805.0000000000005
12.344,1800.8913686174221
12.348,1792.9645805127602
12.352,1805.021976339055
12.356,1790.8834564882118
12.36,1797.9999999999993
12.364,1906.4646962216043
12.368,1951.0964598061319
12.372,1915.7012080982527
12.376,1940.162352821876
12.38,1930.999999999998
12.384,1879.923916563939
12.388,1875.856173126992
12.392,1870.4309322453353
12.396,1880.5095965358757
12.4,1875.0
12.404,1790.5065585883808
12.408,1757.6116978427174
12.412,1782.1046593642054
12.416,1766.6703278632974
12.42,1771.9999999999993
12.424,1787.7643569185138
12.428,1783.8802084461386
12.432,1790.446550036818
12.436,1785.0160479721712
12.44,1786.9999999999993
12.444,1773.7055531301753
12.448,1755.7338307136504
12.452,1776.8298843518744
12.456,1757.9547640806204
12.46,1766.0
12.464,1815.6519822354057
12.468,1814.9681663094298
12.472,1827.178477103926
12.476,1811.9654309000646
12.48,1818.9999999999998
12.484,1806.8985466488712
12.488,1736.9291070837971
12.492,1850.8392920379367
12.496,1710.0767451007582
12.5,1783.0
12.504,3063.9556051059985
12.508,3665.778538281666
12.512,3128.167874173966
12.516,3558.9197762151016
12.52,3378.999999999997
12.524,1633.7599358573927
12.528,1082.8909655862885
12.532,1450.1616824847483
12.536,1234.6980803349088
12.54,1307.0000000000016
12.544,1608.5965295458254
12.548,1627.0570339724163
12.552,1648.231349959045
12.556,1617.3955742214766
12.56,1632.0000000000005
12.564,1742.2240254249994
12.568,1755.5479145244976
12.572,1762.4216921000366
12.576,1745.4966957327506
12.58,1754.999999999999
12.584,1890.8639906666226
12.588,1939.5892182044986
12.592,1905.1296892017654
12.596,1926.5560161900935
12.6,1918.999999999999
12.604,1868.774300998848
12.608,1853.2396887334703
12.612,1865.917333621156
12.616,1855.3542631504479
12.62,1859.999999999999
12.624,1912.758631503285
12.628,1929.796731901574
12.632,1919.356403616698
12.636,1924.044162563647
12.64,1923.0000000000007
12.644,1934.438114667195
12.648,1940.799148720611
12.652,1936.6683918112162
12.656,1937.87469412183
12.66,1937.9999999999995
12.664,1957.227595533051
12.668,1965.296981765366
12.672,1960.9432678111127
12.676,1960.962169396196
12.68,1962.000000000001
12.684,2009.3694515321213
12.688,2033.015147824653
12.692,2014.038334240215
12.696,2025.6974989864607
12.7,2021.999999999997
12.704,2037.774556471645
12.708,2058.3417324109264
12.712,2036.1674894947027
12.716,2054.1880710912023
12.72,2047.0
12.724,2016.487719744166
12.728,2023.2655710768554
12.732,2007.8717599904917
12.736,2024.8597947890094
12.74,2017.0
12.744,1954.131221285778
12.748,1947.8935277648045
12.752,1940.1466293157728
12.756,1955.5446540306457
12.76,1947.0
12.764,1825.3257613218288
12.768,1784.9701801788392
12.772,1809.100245587467
12.776,1799.3528892195943
12.78,1800.9999999999986
12.784,1754.7045391966274
12.788,1728.950312249894
12.792,1749.5607698028332
12.796,1736.958999057101
12.8,1740.9999999999966
12.804,1739.1148689354757
12.808,1730.1545331088196
12.812,1738.492993210144
12.816,1734.0528272727795
12.82,1735.0000000000005
12.824,1697.8910731845922
12.828,1671.1109352947992
12.832,1697.949318041001
12.836,1675.899931325856
12.84,1684.9999999999975
12.844,1754.1006717140253
12.848,1767.9618476394276
12.852,1763.8788256460998
12.856,1762.5181697493028
12.86,1763.999999999999
12.864,1787.8456709583447
12.868,1793.9040726883368
12.872,1791.972232753162
12.876,1791.0502973397165
12.88,1791.9999999999995
12.884,1811.0307568269845
12.888,1817.6906389953447
12.892,1813.4900852985606
12.896,1815.6136528060297
12.9,1814.9999999999989
12.904,1810.4761407658336
12.908,1806.860721255226
12.912,1811.8930297148231
12.916,1806.0290790616014
12.92,1809.000000000001
12.924,1858.1267454692295
12.928,1880.7867307991567
12.932,1860.3274316093612
12.936,1877.3636367937731
12.94,1870.0
12.944,1782.7619752512035
12.948,1748.736306358122
12.952,1775.993199983334
12.956,1756.3353693903641
12.96,1763.9999999999975
12.964,1818.3877413594328
12.968,1828.8772657293905
12.972,1826.1978220174533
12.976,1824.6159454725953
12.98,1825.9999999999986
12.984,1839.698070878377
12.988,1836.5204088010248
12.992,1847.1301750664015
12.996,1831.578040377508
13.0,1839.9999999999995
13.004,1987.1583381730989
13.008,2051.722769892816
13.012,1998.4577887754233
13.016,2036.6861885956243
13.02,2022.0000000000005
13.024,1929.9098489709663
13.028,1917.2189289636494
13.032,1914.9510949214955
13.036,1924.907737703543
13.04,1918.9999999999975
13.044,1828.844414106799
13.048,1796.478674424867
13.052,1818.3167228753744
13.056,1806.547548998571
13.06,1810.0000000000005
13.064,1802.9500319490023
13.068,1792.4412716396341
13.072,1802.4284286640918
13.076,1795.9547937555499
13.08,1797.9999999999975
13.084,1782.4269023179502
13.088,1766.3429992948682
13.092,1782.7842482268204
13.096,1770.5283310627206
13.1,1775.000000000001
13.104,1761.6645620628274
13.108,1733.0219068375814
13.112,1768.6434324421364
13.116,1736.1833520865944
13.12,1749.9999999999986
13.124,1789.0005158181966
13.128,1730.9571389405776
13.132,1839.4500783054095
13.136,1699.9280177581625
13.14,1772.9999999999977
13.144,3069.098822388213
13.148,3677.9631239770174
13.152,3134.969888714741
13.156,3568.882725744167
13.16,3388.000000000001
13.164,1650.6969860413049
13.168,1109.398882326426
13.172,1464.6798771071624
13.176,1261.64322862006
13.18,1327.9999999999998
13.184,1542.7841360779644
13.188,1523.2635511712656
13.192,1577.773350090452
13.196,1519.8239168770922
13.2,1546.0
13.204,1790.9766034035001
13.208,1858.1646835314978
13.212,1819.5819029487225
13.216,1838.6374187522267
13.22,1832.999999999999
13.224,1802.4794395624335
13.228,1789.0831408438041
13.232,1803.7281850648883
13.236,1789.1587579969864
13.24,1796.0000000000002
13.244,1880.7490866299574
13.248,1910.602220674674
13.252,1889.4323814986128
13.256,1902.8090514548153
13.26,1897.9999999999975
13.264,1858.4691181675678
13.268,1841.8869149436794
13.272,1858.4201953444801
13.276,1842.6091239702007
13.28,1849.9999999999975
13.284,1947.452666732437
13.288,1983.2784842819597
13.292,1958.0683571630857
13.296,1972.4852417861118
13.3,1967.9999999999998
13.304,1971.705466799822
13.308,1983.6640382281712
13.312,1971.1072067272466
13.316,1980.3521412953376
13.32,1976.9999999999984
13.324,1975.3858718743181
13.328,1984.5278201537508
13.332,1973.4761846238398
13.336,1982.536952567127
13.34,1978.999999999999
13.344,1970.8084844649954
13.348,1977.5106182258714
13.352,1968.2824292262956
13.356,1975.6843331993148
13.36,1972.9999999999984
13.364,1994.7957216621196
13.368,2023.7140096947953
13.372,1988.2516575259958
13.376,2022.4741888920325
13.38,2006.999999999996
13.384,1851.6545582036317
13.388,1810.7862667152438
13.392,1828.9824796959438
13.396,1827.5391446624315
13.4,1825.0000000000011
13.404,1726.9166326589427
13.408,1683.8612126692763
13.412,1715.9626105440798
13.416,1696.9236270614092
13.42,1702.9999999999995
13.424,1703.5430313228808
13.428,1690.3866250320855
13.432,1705.255321737557
13.436,1693.1842241946208
13.44,1697.9999999999993
13.444,1729.58680688178
13.448,1736.3417200692413
13.452,1732.3569355466066
13.456,1735.515164880478
13.46,1734.0000000000011
13.464,1704.3619221621313
13.468,1690.6822188518286
13.472,1701.7037912642018
13.476,1694.504312781951
13.48,1697.0
13.484,1702.693312735672
13.488,1700.6094746812048
13.492,1702.9238296295387
13.496,1702.1781089238912
13.5,1702.0000000000005
13.504,1672.354928378012
13.508,1653.1740905690672
13.512,1672.2431510787064
13.516,1656.2460836948926
13.52,1662.9999999999993
13.524,1725.6350834534296
13.528,1744.7582262261453
13.532,1731.6067210912256
13.536,1740.496815542936
13.54,1736.9999999999984
13.544,1696.9202800715861
13.548,1680.501657071153
13.552,1693.8880109928464
13.556,1684.4643727760083
13.56,1687.9999999999998
13.564,1703.5515373851356
13.568,1702.1732701516091
13.572,1706.8850878946628
13.576,1701.5111209194379
13.58,1703.9999999999989
13.584,1725.0049854395945
13.588,1729.1897191786788
13.592,1727.7238906450978
13.596,1728.2256456280725
13.6,1727.9999999999998
13.604,1708.1146245695927
13.608,1692.4797206359144
13.612,1710.0453397202261
13.616,1693.7323239431216
13.62,1701.0000000000023
13.624,1771.3140044973084
13.628,1788.7500934051784
13.632,1782.11547293978
13.636,1780.9519968387203
13.64,1782.9999999999995
13.644,1840.3511533133576
13.648,1864.8222895989127
13.652,1846.7298006420733
13.656,1857.286643181622
13.66,1854.0000000000011
13.664,1861.9440678746366
13.668,1875.9770528117328
13.672,1859.6356203829887
13.676,1874.558828967505
13.68,1867.9999999999977
13.684,1802.0525295680943
13.688,1782.3540516610567
13.692,1793.9719535098752
13.696,1788.9701537754672
13.7,1789.9999999999995
13.704,1769.0802472631947
13.708,1754.8159942461941
13.712,1768.147814278117
13.716,1758.2214305009481
13.72,1761.9999999999986
13.724,1775.6072592875503
13.728,1771.9735592318798
13.732,1778.6399930866526
13.736,1772.760308762854
13.74,1774.9999999999986
13.744,1757.3379612999424
13.748,1732.765970822818
13.752,1762.3767497310455
13.756,1735.767508402138
13.76,1746.9999999999984
13.764,1768.9185803514908
13.768,1712.5079777983726
13.772,1812.5844283215317
13.776,1686.34089571455
13.78,1751.9999999999977
13.784,2894.4863640600042
13.788,3423.419513317488
13.792,2957.629076657525
13.796,3324.1566791698206
13.8,3172.9999999999977
13.804,1789.6427021712705
13.808,1383.3012477688387
13.812,1632.163119816895
13.816,1505.799346813195
13.82,1542.0
13.824,1501.1725982126482
13.828,1406.2339002999672
13.832,1509.7222922801031
13.836,1423.0222791982014
13.84,1458.9999999999998
13.844,1754.8749422882784
13.848,1830.1492748942205
13.852,1789.8619454432614
13.856,1807.4836346605566
13.86,1802.9999999999993
13.864,1795.8270365098547
13.868,1793.174564455705
13.872,1798.1713744239264
13.876,1791.658733440885
13.88,1794.999999999999
13.884,1837.0542216782137
13.888,1849.9687395296176
13.892,1842.4236934286594
13.896,1846.044075499643
13.9,1845.0
13.904,1828.9138571551687
13.908,1814.8334823697965
13.912,1833.2159095875377
13.916,1813.3398527174907
13.92,1822.999999999996
13.924,1952.8788937176273
13.928,1999.8044335507025
13.932,1967.4182787392658
13.936,1985.5877276557815
13.94,1979.9999999999968
13.944,1979.002511991177
13.948,1987.5063610351485
13.952,1980.480679118028
13.956,1982.5596751558558
13.96,1982.9999999999998
13.964,2046.2655112284485
13.968,2083.0232717009712
13.972,2050.1727642185924
13.976,2073.7178781417374
13.98,2064.999999999999
13.984,2040.6374995613414
13.988,2053.003265005971
13.992,2033.1228019366013
13.996,2052.2533452131847
14.0,2043.9999999999995
14.004,1996.4591145104475
14.008,1998.9509269296684
14.012,1984.7425271900509
14.016,2002.7663877046346
14.02,1993.9999999999986
14.024,1912.326168242291
14.028,1898.676214092859
14.032,1896.427553907944
14.036,1908.1544400856376
14.04,1900.999999999999
14.044,1795.3047458430003
14.048,1763.129428320252
14.052,1778.7966661476569
14.056,1776.962295541406
14.06,1775.0000000000002
14.064,1686.1573618192192
14.068,1646.053877756493
14.072,1676.1245382098377
14.076,1658.4991055693608
14.08,1663.9999999999973
14.084,1658.513114243477
14.088,1644.241267334235
14.092,1658.3210094332967
14.096,1648.986649392849
14.1,1652.0000000000002
14.104,1633.6305974899665
14.108,1612.0470727417664
14.112,1636.1242616362592
14.116,1614.8322614529434
14.12,1623.9999999999986
14.124,1709.0461066900675
14.128,1733.4128581906168
14.132,1718.5170601677783
14.136,1726.626056386247
14.14,1723.9999999999986
14.144,1709.2949078818792
14.148,1705.5726153676985
14.152,1707.7945534715218
14.156,1706.7770676763769
14.16,1707.0
14.164,1701.7607140771338
14.168,1698.3162464634918
14.172,1701.1946832680896
14.176,1699.6005050759363
14.18,1699.9999999999975
14.184,1689.803321574483
14.188,1681.7190501271257
14.192,1690.1303233893302
14.196,1683.0214365742333
14.2,1686.0
14.204,1708.852184908976
14.208,1712.9687052209847
14.212,1712.570640310511
14.216,1710.7579507455303
14.22,1711.9999999999986
14.224,1736.1978478202418
14.228,1747.1404906843354
14.232,1737.4910510136583
14.236,1745.4124690118133
14.24,1741.9999999999984
14.244,1700.2348193393145
14.248,1683.2212568118898
14.252,1697.3859324070875
14.256,1686.6765005619422
14.26,1690.999999999999
14.264,1728.4555897146206
14.268,1739.1642588914217
14.272,1732.4952715834843
14.276,1736.2971512457389
14.28,1734.999999999999
14.284,1723.6442584345539
14.288,1718.3272394869005
14.292,1723.8039344510569
14.296,1718.5514986078006
14.3,1721.0000000000005
14.304,1754.511975527894
14.308,1768.2385669393445
14.312,1756.9900181185587
14.316,1765.3038031245558
14.32,1762.000000000001
14.324,1735.9797883116005
14.328,1730.2891722361583
14.332,1731.8831513962684
14.336,1733.1987390074598
14.34,1731.999999999998
14.344,1702.8336210358223
14.348,1690.8857095472022
14.352,1698.6604259665542
14.356,1696.0367446141358
14.36,1696.0000000000002
14.364,1643.6492769397264
14.368,1609.586916021667
14.372,1642.9075505500177
14.376,1616.3856456287124
14.38,1627.0
14.384,1670.1436129794329
14.388,1652.1339407545574
14.392,1690.212810677397
14.396,1643.8828997245016
14.4,1667.0000000000014
14.404,1960.986845147258
14.408,2049.5412717634354
14.412,2009.1187621730496
14.416,2004.639097686746
14.42,2017.000000000001
14.424,2563.4547205699173
14.428,2883.939196584258
14.432,2567.273623735007
14.436,2840.827083629897
14.44,2721.9999999999973
14.444,1457.0804640869892
14.448,1033.2291071815444
14.452,1328.338425766271
14.456,1146.7875777645625
14.46,1210.0000000000005
14.464,1526.0456722167473
14.468,1567.0421660781894
14.472,1565.7212207539446
14.476,1552.0310271943915
14.48,1560.0000000000005
14.484,1637.0173992295531
14.488,1651.6266341807207
14.492,1649.186567332081
14.496,1645.1324644411184
14.5,1647.9999999999993
14.504,1687.7413603039693
14.508,1699.341879020295
14.512,1692.6923117718552
14.516,1696.2470998991878
14.52,1694.9999999999995
14.524,1668.496081376154
14.528,1650.0236672985284
14.532,1670.7785434605844
14.536,1651.0140071819987
14.54,1659.9999999999995
14.544,1757.8665798293227
14.548,1787.2463130239953
14.552,1770.7066441656489
14.556,1776.8127269865593
14.56,1775.9999999999989
14.564,1809.6376124750027
14.568,1826.7141591027623
14.572,1814.1547482140302
14.576,1820.569495393013
14.58,1818.9999999999998
14.584,1842.6398491842508
14.588,1859.3504092551905
14.592,1844.2400122830036
14.596,1854.7970445475075
14.6,1851.0
14.604,1840.4203709797546
14.608,1842.5897005816355
14.612,1840.3952524549666
14.616,1839.602657974285
14.62,1840.9999999999989
14.624,1918.3334155112611
14.628,1966.867590761914
14.632,1918.3233105840397
14.636,1959.4511402732135
14.64,1941.999999999998
14.644,1789.6416068245617
14.648,1752.4007868150297
14.652,1768.823585591315
14.656,1766.1205153375388
14.66,1765.0000000000011
14.664,1720.7354916832162
14.668,1707.728962473973
14.672,1711.6711451221245
14.676,1715.201897023047
14.68,1711.9999999999984
14.684,1638.0133634689594
14.688,1607.9807912228102
14.692,1629.3800775343027
14.696,1617.3466695028324
14.7,1621.0000000000002
14.704,1619.93863686143
14.708,1613.9338382817457
14.712,1618.6462146638191
14.716,1617.2245473600171
14.72,1617.0000000000002
14.724,1583.435885606883
14.728,1565.5852239726837
14.732,1580.153873998193
14.736,1571.0827578435737
14.74,1573.9999999999989
14.744,1564.404512707648
14.748,1549.7947154325352
14.752,1566.287309539266
14.756,1551.8772119478738
14.76,1557.9999999999993
14.764,1609.6950328502
14.768,1622.4549414189232
14.772,1616.1328299633778
14.776,1618.3702569542206
14.78,1618.0000000000023
14.784,1623.3728118519641
14.788,1626.6507322015184
14.792,1623.2537917299778
14.796,1626.6700044742038
14.8,1625.0
14.804,1595.4231767608642
14.808,1581.1657538999643
14.812,1593.918171317281
14.816,1583.9125394313105
14.82,1588.0
14.824,1622.2887425565611
14.828,1631.3237158072684
14.832,1626.3418343698197
14.836,1628.5396027176191
14.84,1627.999999999999
14.844,1631.4008473354288
14.848,1635.101166529536
14.852,1630.4634284411293
14.856,1635.4539890997873
14.86,1633.0000000000007
14.864,1594.8042793781294
14.868,1578.7202109286718
14.872,1591.4276215308234
14.876,1583.017407084781
14.88,1585.999999999997
14.884,1592.5725705645996
14.888,1587.549788434677
14.892,1595.0560561947427
14.896,1587.9378625683262
14.9,1591.0000000000005
14.904,1606.3215162513982
14.908,1601.9587543246507
14.912,1612.9381364835463
14.916,1598.5721231545622
14.92,1606.0000000000002
14.924,1723.074909258962
14.928,1772.6352249809615
14.932,1732.0003114721426
14.936,1761.547944059466
14.94,1750.0000000000002
14.944,1666.133161258623
14.948,1649.0990263694516
14.952,1653.6881070706238
14.956,1657.0426213478231
14.96,1653.999999999999
14.964,1583.013973836535
14.968,1551.902682517918
14.972,1576.4150532846138
14.976,1560.2397879283303
14.98,1565.999999999999
14.984,1587.5052349778234
14.988,1586.0158744999783
14.992,1590.3230277110088
14.996,1586.9945402875974
15.0,1588.0000000000016
15.004,1562.148619433494
15.008,1540.3508764335027
15.012,1562.9359380804267
15.016,1544.9974517750056
15.02,1551.999999999998
15.024,1559.4025422616403
15.028,1532.0877174285183
15.032,1572.6698671046267
15.036,1530.5319144342225
15.04,1550.0000000000002
15.044,1710.2546153495653
15.048,1714.6362717294253
15.052,1763.812658311249
15.056,1674.9872131570792
15.06,1725.9999999999995
15.064,2773.183041807115
15.068,3291.853179144874
15.072,2816.628553310182
15.076,3204.773740852399
15.08,3040.999999999999
15.084,1413.3265008647666
15.088,890.8632318471496
15.092,1243.9756345926999
15.096,1033.2023604129351
15.1,1105.0000000000027
15.104,1435.9214687674123
15.108,1471.3668058920407
15.112,1477.1559917415607
15.116,1457.981165269116
15.12,1468.0000000000005
15.124,1553.4926759111042
15.128,1568.4788395379483
15.132,1566.2380708157225
15.136,1562.5600421047236
15.14,1564.9999999999975
15.144,1582.634604410278
15.148,1579.8007590127268
15.152,1588.3996525953457
15.156,1577.920009717046
15.16,1582.9999999999973
15.164,1633.3015190288634
15.168,1643.705458240537
15.172,1642.314003606757
15.176,1637.7166397182575
15.18,1640.999999999999
15.184,1704.578182839405
15.188,1730.4164788339656
15.192,1710.6841432905012
15.196,1723.9681416787398
15.2,1718.9999999999986
15.204,1674.6605984457244
15.208,1655.7727978847488
15.212,1674.5048806048678
15.216,1656.673958857502
15.22,1665.0000000000005
15.224,1776.242255329324
15.228,1818.0272038840883
15.232,1787.8680476014447
15.236,1805.8695823294815
15.24,1799.9999999999973
15.244,1794.8407624141557
15.248,1805.256452778275
15.252,1793.2002144249204
15.256,1802.237808012818
15.26,1798.9999999999995
15.264,1806.2596573452518
15.268,1822.2698031270265
15.272,1803.4635251933705
15.276,1819.8041083929284
15.28,1812.9999999999998
15.284,1773.6224565976577
15.288,1773.9343025081826
15.292,1764.8766336200686
15.296,1776.8848895424308
15.3,1770.9999999999995
15.304,1717.1789660388035
15.308,1708.9580336802019
15.312,1706.4348751808755
15.316,1715.1047944521138
15.32,1709.9999999999995
15.324,1639.840201301689
15.328,1620.2233285390955
15.332,1628.1983308195072
15.336,1629.3700415972435
15.34,1626.9999999999986
15.344,1561.044148955721
15.348,1535.124097606334
15.352,1551.885552992514
15.356,1544.7933519841608
15.36,1545.9999999999989
15.364,1503.934498339656
15.368,1478.9129706032077
15.372,1500.428731915085
15.376,1485.76349741783
15.38,1491.0
15.384,1506.7461429083235
15.388,1502.9870950226725
15.392,1509.2990253822868
15.396,1503.9816815247675
15.4,1505.9999999999973
15.404,1506.4338877539742
15.408,1500.4119796974392
15.412,1507.4652873495118
15.416,1501.9028468361175
15.42,1503.9999999999982
15.424,1504.7167736796096
15.428,1497.584156877846
15.432,1506.9551307226686
15.436,1498.107522425978
15.44,1501.9999999999984
15.444,1537.8064913280516
15.448,1547.943159986322
15.452,1541.3515086869452
15.456,1545.8949428042993
15.46,1543.9999999999995
15.464,1510.9582028986608
15.468,1492.8837051724058
15.472,1510.846783152297
15.476,1495.0948397056356
15.48,1502.0000000000002
15.484,1577.1329520855531
15.488,1602.8691270551803
15.492,1584.4216946671497
15.496,1596.3269485624724
15.5,1591.9999999999982
15.504,1566.7892499108018
15.508,1564.041341841069
15.512,1561.730413248673
15.516,1567.3234373427683
15.52,1564.0000000000007
15.524,1496.7147267222576
15.528,1465.1486466544807
15.532,1492.1005400604963
15.536,1472.4452815027928
15.54,1479.9999999999975
15.544,1517.40680239445
15.548,1514.5758741071834
15.552,1527.4321687544289
15.556,1510.1369624466379
15.56,1519.0000000000011
15.564,1645.6341250851858
15.568,1694.298335143022
15.572,1657.6092159781226
15.576,1681.83883246018
15.58,1672.9999999999984
15.584,1621.5132245351458
15.588,1612.6021042433026
15.592,1615.2873430012887
15.596,1615.3223748373748
15.6,1615.0000000000005
15.604,1618.4036906591925
15.608,1625.1998870736454
15.612,1615.594492312114
15.616,1626.0836452319804
15.62,1621.0000000000005
15.624,1554.545675787464
15.628,1531.6242571739294
15.632,1546.0694781602958
15.636,1539.9711827395522
15.64,1540.9999999999986
15.644,1495.1871468764189
15.648,1464.0591440651856
15.652,1494.6574861198037
15.656,1469.7751346196512
15.66,1479.9999999999995
15.664,1556.9307727438047
15.668,1572.8505731755647
15.672,1566.4578980544686
15.676,1568.9206018140771
15.68,1567.9999999999984
15.684,1505.248230652273
15.688,1452.5678661243226
15.692,1515.546864066074
15.696,1452.7726844058393
15.7,1482.0000000000002
15.704,1816.4026580481711
15.708,1912.6441875173068
15.712,1870.4097022098313
15.716,1864.1691156744525
15.72,1877.999999999999
15.724,2457.431654573332
15.728,2792.9218104439315
15.732,2463.508571327127
15.736,2746.7686874891406
15.74,2624.0000000000005
15.744,1320.7166527823736
15.748,883.2609316678555
15.752,1189.111435190805
15.756,999.4495355766354
15.76,1065.9999999999998
15.764,1416.9831941282007
15.768,1470.422698963906
15.772,1459.774682254889
15.776,1452.3962398990932
15.78,1458.0000000000016
15.784,1519.919913612505
15.788,1532.2231633032593
15.792,1529.450620451863
15.796,1527.4669278558904
15.8,1528.9999999999989
15.804,1537.235838284521
15.808,1531.8589963272716
15.812,1541.9199108669286
15.816,1530.6478685475074
15.82,1535.9999999999993
15.824,1589.4964825348698
15.828,1601.4977429327462
15.832,1598.5491308593937
15.836,1595.341810166778
15.84,1597.9999999999993
15.844,1652.0702866706322
15.848,1672.7618933891981
15.852,1658.62099160638
15.856,1666.2028696362515
15.86,1664.000000000001
15.864,1664.6893970639385
15.868,1666.7401000304174
15.872,1666.803462269045
15.876,1663.86332441592
15.88,1665.9999999999982
15.884,1720.31627598281
15.888,1745.78274567764
15.892,1725.136365124838
15.896,1738.825810070625
15.9,1733.9999999999986
15.904,1721.611969985512
15.908,1726.4728862307902
15.912,1719.5381099774636
15.916,1724.730334363146
15.92,1723.000000000001
15.924,1742.8395808334553
15.928,1763.259415990549
15.932,1740.6597664391177
15.936,1760.2321390335499
15.94,1751.999999999997
15.944,1697.9915803984509
15.948,1695.1201963208491
15.952,1686.1378161718162
15.956,1700.5979994508784
15.96,1692.9999999999984
15.964,1600.517979536809
15.968,1575.3489210276084
15.972,1585.55204055701
15.976,1587.100622822428
15.98,1584.000000000001
15.984,1487.9131652943354
15.988,1443.7546355843162
15.992,1479.3063432360432
15.996,1455.09438807352
16.0,1464.0000000000005
16.004,1515.2965372473273
16.008,1525.215520960783
16.012,1520.0553341759075
16.016,1523.679904780713
16.02,1521.9999999999995
16.024,1487.7501192148713
16.028,1471.223619817195
16.032,1485.0932025527704
16.036,1475.4858592734631
16.04,1478.9999999999984
16.044,1492.680996927719
16.048,1491.6491986608312
16.052,1494.7455544737895
16.056,1491.9061852566642
16.06,1493.0000000000007
16.064,1490.4410642891053
16.068,1484.591248545255
16.072,1491.5894615040443
16.076,1485.2945360383928
16.08,1487.9999999999993
16.084,1511.8604775393255
16.088,1518.7790209966408
16.092,1513.8839088547643
16.096,1517.7041645489094
16.1,1515.9999999999982
16.104,1487.2454654111707
16.108,1473.33351570363
16.112,1485.6752668941608
16.116,1476.2415508904517
16.12,1479.999999999998
16.124,1506.364112675375
16.128,1511.4694606298497
16.132,1509.7137262479998
16.136,1509.9552697100085
16.14,1509.999999999999
16.144,1503.7499415115358
16.148,1497.3270941943813
16.152,1505.21626573022
16.156,1497.3187795825252
16.16,1500.9999999999982
16.164,1548.5509055889966
16.168,1567.8419861414836
16.172,1551.3555427749284
16.176,1564.8345408534
16.18,1558.9999999999982
16.184,1485.4002631238523
16.188,1455.2722152864476
16.192,1479.918727090351
16.196,1462.1285567628383
16.2,1468.9999999999998
16.204,1509.2980678200047
16.208,1511.6790367537628
16.212,1517.6952227626612
16.216,1507.5512365707655
16.22,1512.9999999999995
16.224,1591.565753108221
16.228,1619.8846956814195
16.232,1600.6640175467135
16.236,1610.9114003867262
16.24,1608.0
16.244,1626.8153238559084
16.248,1647.4384831107832
16.252,1623.7833553160974
16.256,1646.1425276129316
16.26,1636.0000000000014
16.264,1513.6365304627616
16.268,1468.0413412338103
16.272,1502.9038983668734
16.276,1478.8255799365593
16.28,1487.9999999999984
16.284,1558.0718771945703
16.288,1577.9562530003752
16.292,1564.2954531499172
16.296,1573.980940360468
16.3,1569.9999999999986
16.304,1519.3862867226621
16.308,1498.7257656076597
16.312,1514.5448702333795
16.316,1505.0948564588525
16.32,1508.0000000000016
16.324,1483.0172462439625
16.328,1456.302925516344
16.332,1485.1934743279228
16.336,1462.045298817241
16.34,1471.0000000000014
16.344,1443.0247572081296
16.348,1364.413110635361
16.352,1481.8998025163964
16.356,1344.6205533921386
16.36,1414.0000000000014
16.364,2556.062351078939
16.368,3073.436814610859
16.372,2622.301249388789
16.376,2975.1476522384073
16.38,2829.9999999999977
16.384,1500.8656792356535
16.388,1107.6791910192358
16.392,1351.1236811433128
16.396,1224.8471039189524
16.4,1261.9999999999995
16.404,1256.0122025620537
16.408,1178.7861465108406
16.412,1266.0658987500267
16.416,1192.7517331464842
16.42,1222.9999999999984
16.424,1454.340631639718
16.428,1505.5554474722023
16.432,1483.9021158007722
16.436,1488.4852192693083
16.44,1488.999999999999
16.444,1518.1675436884912
16.448,1524.319144562493
16.452,1524.5049032472082
16.456,1520.5455766440014
16.46,1522.9999999999998
16.464,1550.4487609654345
16.468,1553.8677697182968
16.472,1557.1451569444232
16.476,1549.8456001681543
16.48,1553.999999999999
16.484,1614.846244388863
16.488,1634.8955242043428
16.492,1623.1721193398405
16.496,1627.6355374421341
16.5,1626.9999999999984
16.504,1648.4032316063408
16.508,1657.9293483441913
16.512,1652.5714663847302
16.516,1653.1673824277113
16.52,1653.9999999999968
16.524,1697.4742684903251
16.528,1718.9961794556148
16.532,1701.6678340719293
16.536,1712.7299772515105
16.54,1709.0000000000011
16.544,1706.10129456016
16.548,1713.2128465233984
16.552,1705.3248271622606
16.556,1710.7151019807498
16.56,1709.000000000001
16.564,1726.9200052211738
16.568,1744.603617492272
16.572,1725.7005016673886
16.576,1741.4570608426557
16.58,1735.0000000000005
16.584,1696.9973149823793
16.588,1695.9111433953544
16.592,1689.3560802940656
16.596,1698.4514765244476
16.6,1693.9999999999986
16.604,1659.8516435587776
16.608,1659.5777328240674
16.612,1650.3300813596068
16.616,1664.5175464312115
16.62,1657.0000000000014
16.624,1552.2794501257513
16.628,1516.2995255135913
16.632,1539.4843017666176
16.636,1527.873859659419
16.64,1531.0000000000005
16.644,1521.4212345162705
16.648,1513.2509796644217
16.652,1518.6424995112586
16.656,1517.6299505681916
16.66,1516.9999999999984
16.664,1472.3871733546
16.668,1448.6433450761328
16.672,1469.1121952939332
16.676,1454.496915967578
16.68,1459.9999999999977
16.684,1491.242033497166
16.688,1496.4594727787892
16.692,1494.2424571226945
16.696,1495.8962613487572
16.7,1495.0000000000002
16.704,1468.3448419931806
16.708,1454.1666534205315
16.712,1466.448416244846
16.716,1457.9647759004129
16.72,1461.0000000000018
16.724,1463.9575565298715
16.728,1455.9165863962871
16.732,1466.759509137209
16.736,1456.4982669626447
16.74,1460.999999999999
16.744,1499.2003154207089
16.748,1507.5808099795847
16.752,1504.5822599953985
16.756,1504.4286927768653
16.76,1505.0
16.764,1516.0049812910243
16.768,1519.066196473477
16.772,1517.5950147241017
16.776,1518.1289647213716
16.78,1517.9999999999982
16.784,1512.8923394288902
16.788,1508.7019946578885
16.792,1513.375823712329
16.796,1509.217572127276
16.8,1510.999999999999
16.804,1524.3157483436946
16.808,1526.3681414323603
16.812,1526.3796093739584
16.816,1525.5329464648044
16.82,1526.000000000001
16.824,1525.3691824362786
16.828,1521.6711508385256
16.832,1526.8443829093892
16.836,1521.5847458098515
16.84,1523.9999999999995
16.844,1547.928049307401
16.848,1554.2969011659388
16.852,1550.8732578346653
16.856,1552.5918816390572
16.86,1551.9999999999982
16.864,1534.9828466412089
16.868,1521.42008935572
16.872,1537.8455725419724
16.876,1520.9745305954198
16.88,1529.000000000001
16.884,1636.092736900369
16.888,1676.6837903418868
16.892,1646.469592995322
16.896,1665.8277558750938
16.9,1658.9999999999995
16.904,1633.2683139011363
16.908,1636.638296681717
16.912,1627.3788697327304
16.916,1638.1943361759527
16.92,1632.9999999999993
16.924,1573.9778245585321
16.928,1556.2635229495368
16.932,1565.9322381006145
16.936,1563.0149078557154
16.94,1563.0000000000016
16.944,1526.4126007465168
16.948,1506.4711514849778
16.952,1523.3721367786973
16.956,1512.0702918188906
16.96,1515.9999999999968
16.964,1515.2068859150904
16.968,1502.1729419454755
16.972,1518.1564319891318
16.976,1504.4108479803547
16.98,1510.000000000001
16.984,1525.2128072557352
16.988,1510.8941650359113
16.992,1533.8890532798068
16.996,1510.7889884585572
17.0,1520.999999999999
17.004,1548.7617691708092
17.008,1499.645313314974
17.012,1591.089251022967
17.016,1472.9179230600998
17.02,1535.0
17.024,2650.0047387883096
17.028,3178.645189395671
17.032,2703.7774775289345
17.036,3086.317890822761
17.04,2925.999999999995
17.044,1353.381634046423
17.048,852.1622076184447
17.052,1189.1068013721901
17.056,989.4552374236014
17.06,1057.0000000000007
17.064,1351.0317428675894
17.068,1373.9216478424955
17.072,1389.3643196245034
17.076,1363.2621168031394
17.08,1375.9999999999993
17.084,1480.9357609691183
17.088,1499.0519844390483
17.092,1497.1346913255
17.096,1491.0485283380297
17.1,1495.0000000000002
17.104,1538.871085575206
17.108,1546.1376287481917
17.112,1547.6012332916343
17.116,1541.1321776621764
17.12,1545.000000000001
17.124,1599.5720229584
17.128,1616.3638003804115
17.132,1607.1706719119632
17.136,1610.4209298932872
17.14,1610.000000000001
17.144,1618.0363727937747
17.148,1617.800965496043
17.152,1622.579752507943
17.156,1614.4081303006103
17.16,1618.9999999999998
17.164,1698.0470441471534
17.168,1730.3047876598675
17.172,1705.7296757027193
17.176,1721.6794045951756
17.18,1716.0
17.184,1685.252348728366
17.188,1678.164553283259
17.192,1683.9751739642236
17.196,1677.7444317993027
17.2,1680.999999999999
17.204,1742.9904872638247
17.208,1770.614794277768
17.212,1748.8069602176993
17.216,1762.6374968071768
17.22,1757.9999999999993
17.224,1760.770509675517
17.228,1775.7898086735759
17.232,1758.2244024285815
17.236,1772.8333865390405
17.24,1766.9999999999995
17.244,1749.6088765618777
17.248,1762.0775702795736
17.252,1740.745529820041
17.256,1763.9539675637739
17.26,1753.0000000000016
17.264,1634.9709073314707
17.268,1602.0958733167683
17.272,1618.3558367057824
17.276,1614.6836039857942
17.28,1613.9999999999998
17.284,1558.6370398953238
17.288,1534.4504861187204
17.292,1551.4949133371565
17.296,1542.6519865789962
17.3,1544.999999999999
17.304,1527.802053538551
17.308,1514.2067035457821
17.312,1526.3253696057975
17.316,1518.155591500104
17.32,1521.0000000000005
17.324,1526.9346478106654
17.328,1524.2587415191933
17.332,1527.3246417083342
17.336,1525.751362788505
17.34,1525.9999999999989
17.344,1507.8178478298737
17.348,1496.2279580208588
17.352,1506.8155212699196
17.356,1499.1114886174105
17.36,1502.0000000000005
17.364,1514.380185995127
17.368,1514.3818154495636
17.372,1515.6860878874154
17.376,1515.0345042085917
17.38,1515.0000000000002
17.384,1491.0402097584924
17.388,1474.0767341565593
17.392,1491.8758254685051
17.396,1476.129370262953
17.4,1482.9999999999986
17.404,1554.26292566157
17.408,1577.8847754787948
17.412,1560.998795065111
17.416,1572.3206838571032
17.42,1567.9999999999993
17.424,1529.3567219756283
17.428,1516.7942615025509
17.432,1525.275884084282
17.436,1520.6601796842588
17.44,1521.9999999999986
17.444,1513.1884531586325
17.448,1504.154988339897
17.452,1513.4018962540551
17.456,1506.3197033922918
17.46,1508.999999999999
17.464,1509.9503276175988
17.468,1499.029018201562
17.472,1514.7002983777031
17.476,1498.2538125118404
17.48,1505.9999999999993
17.484,1598.553703174048
17.488,1630.1361719363504
17.492,1608.4391354088389
17.496,1621.3998074568499
17.5,1616.9999999999995
17.504,1594.1896867509465
17.508,1588.9537989390462
17.512,1592.7936752422786
17.516,1589.3865634552621
17.52,1590.9999999999995
17.524,1615.4786048206784
17.528,1625.4257924255123
17.532,1617.7975359065972
17.536,1622.755906818294
17.54,1621.0
17.544,1614.1989795219515
17.548,1614.6636334586537
17.552,1613.0262799122302
17.556,1614.7344176474005
17.56,1613.9999999999973
17.564,1613.5621582010149
17.568,1617.9145389166465
17.572,1610.7897187039543
17.576,1619.3573465483569
17.58,1614.9999999999973
17.584,1546.5705180425832
17.588,1518.3742705653947
17.592,1540.1871955253782
17.596,1526.0958367841724
17.6,1530.9999999999982
17.604,1540.6206832252974
17.608,1532.7737529777041
17.612,1543.6278402540054
17.616,1534.2971380438662
17.62,1538.000000000001
17.624,1541.5964271615221
17.628,1529.0047075292846
17.632,1545.741631634655
17.636,1531.2345819972154
17.64,1536.9999999999982
17.644,1517.188844605914
17.648,1466.4143321793008
17.652,1539.12716246714
17.656,1458.6637346227785
17.66,1497.999999999999
17.664,2040.4584510023665
17.668,2242.5159526643183
17.672,2099.9978366780097
17.676,2179.6481789335166
17.68,2155.999999999998
17.684,2302.148578354533
17.688,2475.377445137525
17.692,2272.3809254325747
17.696,2465.6872424970725
17.7,2377.9999999999995
17.704,1361.986517357457
17.708,1006.1067459090419
17.712,1260.7707076696474
17.716,1100.1618728908384
17.72,1156.999999999999
17.724,1451.8388320414915
17.728,1490.3861591417544
17.732,1490.4279220515136
17.736,1475.160180488606
17.74,1483.9999999999986
17.744,1572.4115138909938
17.748,1588.503595132802
17.752,1588.0497053844188
17.756,1579.4482682623661
17.76,1584.9999999999977
17.764,1671.500013135593
17.768,1700.769218018972
17.772,1682.5265622511176
17.776,1691.191003153854
17.78,1688.9999999999995
17.784,1696.9646519361572
17.788,1702.13713772855
17.792,1699.6027981428224
17.796,1698.9140810483161
17.8,1699.9999999999975
17.804,1734.4892126219916
17.808,1749.9506286384972
17.812,1738.1439179542463
17.816,1745.4618146975363
17.82,1742.9999999999982
17.824,1733.2277432345422
17.828,1730.7210650237716
17.832,1734.1277587035165
17.836,1729.3574277358957
17.84,1731.9999999999968
17.844,1778.646389223213
17.848,1796.5051107579347
17.852,1784.9852283023008
17.856,1789.5700965208748
17.86,1788.9999999999998
17.864,1830.422974450029
17.868,1854.802228357407
17.872,1833.9474722748391
17.876,1847.527389817285
17.88,1842.999999999999
17.884,1856.1418126297315
17.888,1879.0414694575475
17.892,1852.7614588282113
17.896,1875.451931903158
17.9,1865.999999999999
17.904,1809.2150440703863
17.908,1808.776510051492
17.912,1796.1779887833673
17.916,1814.1552337238693
17.92,1804.9999999999995
17.924,1697.4250803852528
17.928,1666.9590509965178
17.932,1681.9766243032384
17.936,1678.6288074847719
17.94,1677.9999999999982
17.944,1634.489433816415
17.948,1619.4540217325407
17.952,1625.931136543571
17.956,1627.506784936629
17.96,1624.999999999999
17.964,1547.201590839497
17.968,1512.3187741955721
17.972,1538.7157184332816
17.976,1523.2176157751587
17.98,1527.9999999999993
17.984,1509.9362922725643
17.988,1485.2155974287962
17.992,1513.0424309548218
17.996,1488.2840353020335
18.0,1498.9999999999982
18.004,1603.618142466153
18.008,1636.3290605230313
18.012,1613.9999329516604
18.016,1628.3478722078844
18.02,1622.9999999999982
18.024,1574.7045698026798
18.028,1557.3162930422486
18.032,1571.0312025346013
18.036,1561.0622659129206
18.04,1565.0
18.044,1598.0827680857906
18.048,1608.163685893278
18.052,1600.828484639772
18.056,1606.3374507950052
18.06,1603.9999999999998
18.064,1572.3390937807544
18.068,1558.7023101975399
18.072,1570.0208587950901
18.076,1561.9090435158041
18.08,1565.0000000000002
18.084,1581.59444939113
18.088,1582.535643288554
18.092,1584.393913893906
18.096,1581.6963138353174
18.1,1582.9999999999993
18.104,1591.5598977851025
18.108,1590.9472962947623
18.112,1594.0890485752661
18.116,1589.7966629062971
18.12,1591.9999999999995
18.124,1623.209995908106
18.128,1635.4600616534467
18.132,1625.71039578099
18.136,1632.873930219778
18.14,1629.999999999999
18.144,1602.9977030925372
18.148,1594.7998633248324
18.152,1599.4767041411071
18.156,1598.0852378316683
18.16,1598.0
18.164,1569.1252072219272
18.168,1550.3124567308396
18.172,1569.2893562618585
18.176,1553.0921713012478
18.18,1559.9999999999986
18.184,1621.8101033304868
18.188,1637.3651947516732
18.192,1630.2567619385204
18.196,1631.5889771613838
18.2,1632.0000000000027
18.204,1652.5980045748768
18.208,1659.5466285970988
18.212,1656.5976133918118
18.216,1655.7625576752505
18.22,1657.0
18.224,1698.880520278882
18.228,1720.2370317456848
18.232,1701.3931049617588
18.236,1715.6579656456745
18.24,1710.0
18.244,1670.956849530842
18.248,1665.051263654977
18.252,1663.9723988232886
18.256,1669.364738206308
18.26,1666.0
18.264,1599.9745904126305
18.268,1570.118417156547
18.272,1595.257042098755
18.276,1576.7172984240565
18.28,1583.9999999999986
18.284,1638.4733821153998
18.288,1651.7630939761111
18.292,1644.4015877654613
18.296,1648.479220014899
18.3,1647.0000000000005
18.304,1624.1081786614425
18.308,1612.1326362972275
18.312,1622.8620140468172
18.316,1615.3337699318124
18.32,1617.9999999999968
18.324,1609.6685918643163
18.328,1593.924505172408
18.332,1611.8625763003754
18.336,1597.9763199486024
18.34,1603.0000000000023
18.344,1543.114691112022
18.348,1460.5082348041378
18.352,1573.5652227808507
18.356,1447.707076564278
18.36,1509.9999999999989
18.364,2473.028855153967
18.368,2888.9445996251625
18.372,2540.562667343292
18.376,2800.2438700934144
18.38,2696.999999999999
18.384,1886.7077439393586
18.388,1693.6268579256537
18.392,1779.5011859757713
18.396,1765.6228311001244
18.4,1758.9999999999964
18.404,1399.7454645300386
18.408,1222.8261238351847
18.412,1373.3312663460217
18.416,1262.6932277898184
18.42,1305.9999999999995
18.424,1636.416615691202
18.428,1721.6560224069353
18.432,1672.2060971868834
18.436,1698.755544508936
18.44,1689.9999999999995
18.444,1620.0700101558834
18.448,1591.2904807197503
18.452,1617.6279289460078
18.456,1595.473537339441
18.46,1604.9999999999975
18.464,1699.6571417268892
18.468,1728.274350563049
18.472,1710.3837142162072
18.476,1720.07721155245
18.48,1716.9999999999982
18.484,1698.731783227347
18.488,1691.2464608311261
18.492,1698.9849931428384
18.496,1691.7203723138982
18.5,1695.0000000000002
18.504,1722.0975523325674
18.508,1723.8172930660398
18.512,1729.7326496559322
18.516,1718.9434442279733
18.52,1725.0000000000002
18.524,1824.9433160673393
18.528,1863.762357224434
18.532,1836.0655085411008
18.536,1851.8361542307043
18.54,1846.9999999999986
18.544,1855.0869568188566
18.548,1870.338655908953
18.552,1854.6491494388347
18.556,1866.320205542008
18.56,1861.9999999999995
18.564,1852.03267808068
18.568,1858.0957573220758
18.572,1849.9296278721758
18.576,1856.1710569218983
18.58,1853.9999999999982
18.584,1869.7079422584634
18.588,1888.4089365021414
18.592,1867.6542340380724
18.596,1885.2023219977525
18.6,1877.999999999999
18.604,1842.4584441687975
18.608,1848.1567906374378
18.612,1831.7689135501726
18.616,1851.8631921112433
18.62,1842.000000000001
18.624,1729.3620208001512
18.628,1697.3287795050999
18.632,1713.2094397079877
18.636,1709.889726330546
18.64,1708.9999999999989
18.644,1646.0488836700497
18.648,1616.6560859423773
18.652,1639.6045080352496
18.656,1624.8287015995943
18.66,1629.9999999999989
18.664,1654.9009157926425
18.668,1659.9801930687117
18.672,1655.7216856656657
18.676,1660.6700861061727
18.68,1657.9999999999993
18.684,1605.7365139283952
18.688,1582.091048281748
18.692,1601.4300922060045
18.696,1588.006661554705
18.7,1593.0000000000007
18.704,1620.7757814088127
18.708,1625.0403204867962
18.712,1623.7545687464092
18.716,1624.3052752205858
18.72,1623.9999999999982
18.724,1607.985223373138
18.728,1597.77333830285
18.732,1607.8922526225933
18.736,1599.458575463787
18.74,1603.0
18.744,1635.2071013398895
18.748,1644.9204622155014
18.752,1638.3358053598033
18.756,1642.6083164724437
18.76,1641.0000000000005
18.764,1628.7373531203984
18.768,1626.6554143575115
18.772,1625.9759828946128
18.776,1628.857579764548
18.78,1626.9999999999984
18.784,1586.0922746558172
18.788,1567.3775885222856
18.792,1582.4527608837227
18.796,1572.5721899184643
18.8,1576.0000000000023
18.804,1577.7700136136664
18.808,1567.7490342331048
18.812,1581.2142097648225
18.816,1568.0678826620297
18.82,1574.0000000000005
18.824,1636.2294076491748
18.828,1656.205463974434
18.832,1642.341118285732
18.836,1651.5486593012317
18.84,1647.9999999999982
18.844,1608.8009512483172
18.848,1592.4151371380506
18.852,1606.1230595607867
18.856,1596.3034025068696
18.86,1599.999999999999
18.864,1609.4689809143797
18.868,1600.926249265182
18.872,1615.2200545974345
18.876,1599.5081239910423
18.88,1606.9999999999986
18.884,1692.2627961540263
18.888,1717.4548886628845
18.892,1704.0621656901717
18.896,1707.9164470575734
18.9,1707.9999999999993
18.904,1750.7483209589484
18.908,1771.2082695095546
18.912,1756.0932662373355
18.916,1764.0010740344496
18.92,1761.9999999999984
18.924,1797.350243032182
18.928,1826.7797936082732
18.932,1794.9637933946437
18.936,1823.6740078864373
18.94,1811.0
18.944,1674.546070426636
18.948,1629.2211123057523
18.952,1660.3154685704842
18.956,1641.6234791656814
18.96,1647.9999999999998
18.964,1678.4367716898173
18.968,1683.7814961351453
18.972,1680.2409741694285
18.976,1684.322305850908
18.98,1681.9999999999984
18.984,1621.5758914219336
18.988,1588.984455803608
18.992,1618.9587221871805
18.996,1595.844186019838
19.0,1604.999999999999
19.004,1654.6771476374765
19.008,1654.8963072856986
19.012,1663.8148299558852
19.016,1654.1374345412241
19.02,1657.9999999999993
19.024,1583.8873884481327
19.028,1486.2214205490307
19.032,1622.394226766429
19.036,1466.9104523335545
19.04,1544.9999999999995
19.044,2828.386002842959
19.048,3412.4114195649354
19.052,2900.6135984612415
19.056,3303.4795394285316
19.06,3136.9999999999973
19.064,1580.3837380631023
19.068,1107.5342045716716
19.072,1409.9060120467052
19.076,1243.8620306978028
19.08,1296.0000000000005
19.084,1402.3133443422917
19.088,1355.5058925070407
19.092,1423.8151420929566
19.096,1361.7643808475248
19.1,1388.0000000000016
19.104,1582.4732662006168
19.108,1618.0560074490518
19.112,1611.0573853946635
19.116,1602.7297499168037
19.12,1609.000000000001
19.124,1706.2459227187946
19.128,1736.5845467900524
19.132,1719.6520753663751
19.136,1725.9469629786656
19.14,1724.9999999999975
19.144,1746.6137491659147
19.148,1755.4950085432483
19.152,1750.8467804253496
19.156,1751.4290542234367
19.16,1751.9999999999982
19.164,1772.8372850111723
19.168,1778.9236070593774
19.172,1777.5492080224226
19.176,1774.893603352441
19.18,1777.0
19.184,1822.0175209287158
19.188,1839.0943455413524
19.192,1828.2163674788394
19.196,1832.8018725339837
19.2,1831.9999999999995
19.204,1852.4605360372593
19.208,1861.7742567641856
19.212,1857.1551960413308
19.216,1856.1495917092443
19.22,1857.999999999999
19.224,1927.6207486572023
19.228,1962.1652018972468
19.232,1933.862679110378
19.236,1952.3261965183726
19.24,1946.0
19.244,1944.2268463993114
19.248,1961.2420741487947
19.252,1940.5015928917649
19.256,1958.197208534848
19.26,1950.999999999999
19.264,1918.1782827175352
19.268,1923.450696941773
19.272,1909.8609633096476
19.276,1924.88770188043
19.28,1917.9999999999975
19.284,1869.1920234931856
19.288,1867.887230357082
19.292,1857.2382288659455
19.296,1873.447408153844
19.3,1864.999999999999
19.304,1760.3355700624265
19.308,1729.773448843152
19.312,1745.075617309325
19.316,1741.8363352761044
19.32,1740.999999999999
19.324,1683.895023856075
19.328,1659.4823216813973
19.332,1676.1281278662207
19.336,1668.2001030836846
19.34,1670.0000000000005
19.344,1642.9321825874572
